1798
3999.43349933624
650.420452594757
1
128
4
115.654298666238
115.556100401874
115.596211129747
115.667201691144
115.659934983685
115.631285347015
115.489789699616
115.538133935688
115.765255663078
115.88832856229
115.780328247154
115.58712959093
115.520257531514
115.596082490787
115.620411230432
115.503495253428
115.545306090148
115.566932500661
115.586797232769
115.681729228062
115.632384402298
115.410355797963
115.440319461756
115.416762224589
115.320333525674
115.382983648198
115.318256460735
115.079819226727
115.120051780623
115.104927632544
115.328412057788
115.467440707941
115.31593725309
115.246509611191
115.182280650677
115.150733553169
115.058755271328
114.941121138828
115.124371327257
114.900817706588
115.124919726843
115.013994196705
115.302139783594
115.143148259524
115.028700852257
114.959910170331
114.931638521026
114.96752296252
114.810167431501
115.024448308838
114.631366583466
114.226141802299
114.476450216181
114.844276206683
114.825354889755
114.553208243688
115.000016817764
114.702449950478
114.572294598539
114.849906057981
114.607402341777
114.62664955035
114.115901203307
114.263059181773
114.340390843521
114.582058324094
114.310512430834
114.888059699623
113.915796187817
114.011536222843
114.378695513955
114.119718523744
115.085897358574
114.475717056595
114.284851321191
113.578820659428
114.575145638448
114.795109963147
115.21204580129
113.958836843544
114.17991590683
114.584992226684
114.660055271735
114.369929694791
114.426642950205
114.083740187708
114.49923195677
114.254554949047
114.617268098387
114.337051728945
114.665864001439
114.247067797686
113.925840638117
114.285117482636
114.131321565527
113.913007951399
114.577789513958
114.002071978763
115.231656384428
114.369603708069
114.062543815164
114.650447449667
114.317813381566
114.218044101758
114.167369248454
113.806884469169
114.549430416267
113.920052417991
114.356660850628
114.524242997863
114.247411205904
114.50189610298
114.502190791631
114.283964399325
114.079277377765
114.357234708192
114.522491043511
114.406142792165
114.746271108713
114.291799937712
114.306933238019
114.247160940523
114.106835528181
114.607378058495
114.154097663654
114.178776124879
114.399390135194
114.026948436593
114.561461744303
113.994936727942
114.06268194282
113.414737603303
114.530047684518
113.242952260993
113.750416769674
113.619276051624
114.735191912484
114.366748835868
113.057684942835
113.654314471036
112.740405563086
113.593471401568
113.094818016397
113.64677814491
113.892430680369
113.901284200105
114.126089979266
113.794959153727
113.933187677599
114.171221215476
113.958818590674
113.897968188672
113.683467070083
113.947246830008
113.855380646224
113.699010295256
113.619314379539
113.899245339446
113.994369475936
114.117337974097
114.172656832662
113.800637382552
114.117000314934
113.722914072259
113.239749082804
113.558806282458
113.709102516173
114.110011228635
113.555779657387
114.339498691179
113.480687284339
113.485235077062
112.866043969995
113.444621442679
113.705907065359
112.665295932191
114.104147427429
113.816333516165
113.613013427848
113.886699285141
113.889244781561
113.626315235084
113.507994589783
113.156741596398
113.642847806566
112.969033901814
113.119418415152
113.103040672394
112.760087877737
112.937886261337
113.081047106139
113.519468420288
113.378178277591
113.137620408
113.295221987877
112.918144479416
113.17779015481
112.465473973457
113.44177821046
113.08189212567
112.595374106071
113.129749644774
113.13687272486
112.723323413756
112.406689521565
112.385059193914
112.677317261623
113.175967825221
112.885407534048
112.970584859936
112.856538998456
112.965166971034
113.15668526908
113.262708893143
113.096336773396
112.877715300347
112.821089223663
112.550739109137
112.538341542925
112.545284333812
112.809764243498
112.794912169341
112.583967413708
112.796016202645
113.042146266027
113.128982311041
112.960876661591
112.958974489441
113.009489049755
113.067599581356
112.874207448068
112.799693003763
112.476144692787
112.344352686537
112.645800632461
112.752778156021
112.590085264345
112.355555298946
112.226664478684
112.398843866864
112.483571747898
112.432314898586
112.409610004597
112.187899173867
112.285667618407
112.368411247347
112.652244287784
112.54325587518
112.432384091138
112.2346229031
112.472405352207
112.451654646895
112.256239671131
112.21386712619
112.00124792558
112.253449817998
112.336095652324
112.162539642828
112.182326597841
112.206869121555
112.230045959805
111.954782484206
111.841209995164
111.897923523588
111.992070107197
111.924934150592
111.840624837693
111.838803349801
111.817405698354
111.918395027746
111.882870330599
111.853471612616
112.003156566581
112.096892557998
112.199132539903
112.054793713507
112.023571581103
112.162316270982
112.009214263302
111.90808837794
112.015136741518
111.939455060261
111.755973069706
111.810849186999
111.941135272313
111.880900523731
111.766327995938
111.652367798465
111.718405200173
111.822980327954
111.846029551641
111.633757351427
111.381309647904
111.367654662454
111.50010699025
111.508087006471
111.593833379573
111.222607213643
111.194884236469
111.154751556885
110.923886461784
110.973965768451
111.157763548041
111.026035790161
111.010786022828
110.959476730467
110.939594333227
110.881266844766
110.823960284761
110.984421965034
111.097388764802
110.84953077542
110.764443214804
110.694209199078
110.81230170046
110.826946009558
110.737392353849
110.805276109304
110.924513474969
110.810314428432
110.687370866665
110.841347173226
111.155166771941
111.063224004995
110.847035523733
110.862749370102
110.91854182032
110.956931463671
110.797629970738
110.566328248
110.442309305825
110.463731095673
110.770275702547
110.886671302452
110.767301844698
110.650058705381
110.599429629131
110.482827443124
110.560648254681
110.559723600668
110.596345477115
110.540493440662
110.560064863493
110.471706206519
110.388482427771
110.322734215394
110.365142464544
110.265010863908
110.360856014354
110.435863171788
110.320914970909
110.285893456563
110.482619637289
110.313676964459
110.125095990511
110.01943077834
110.170148102243
110.366790134713
110.327357737306
110.164570494926
110.150535477503
110.116027577404
110.101668441087
110.183336290798
110.185823173068
110.242324165902
110.177624015249
109.917869145912
110.048124160407
110.101280318366
110.02786299101
109.975513646653
110.229831047007
110.270394814524
110.112331244238
109.976784088813
109.966120667282
109.958305305951
109.881591101802
109.874873954334
109.98408146216
109.941248407351
109.896113601633
109.908024108341
109.863118504235
109.762404714152
109.800336353769
109.872493103807
109.891355843528
109.807548840613
109.912145773989
109.8916242381
109.817826060688
109.871150741609
109.829293819578
109.736795784743
109.682862486471
109.715085841343
109.913325827301
110.045322060828
109.922439023178
109.704677489429
109.730622221921
109.798485101601
109.968943164704
109.918320313011
109.86493937443
109.893861090762
110.04923845438
109.930278415965
109.891330909792
109.97902635012
109.936062718805
109.841775370499
109.77162554414
109.795931549423
109.767436216396
109.678689569433
109.860205483432
109.905320312035
109.876083390252
109.811088964581
109.779968923177
109.872339410636
110.035704437015
110.079851094122
109.961987846363
109.910314517928
109.922444510877
109.875497363214
109.878119300409
109.855928481368
109.999133346283
109.956087153552
109.890209511571
109.903907742735
109.795785686871
109.619147916969
109.668526256489
109.78936041691
109.861047047951
109.921972693548
109.97153518362
109.928129008275
109.830374369045
109.769354753143
109.785250869534
109.844416578099
109.974688245692
109.994270992623
110.009251164923
109.925865066659
109.914010515326
109.871936432737
109.822186251753
109.768192350877
109.839895024822
109.916597721139
109.934420931834
109.993462850069
109.908611433492
109.780368681917
109.726683538266
109.808245593737
109.944209538373
109.873475389126
109.870342401477
109.871254584656
109.793908467558
109.701234353991
109.70599240968
109.695392521007
109.706934911914
109.69093292901
109.809810465758
109.861833845084
109.755757710236
109.589514766485
109.63218507251
109.582370052801
109.499850659037
109.27920435545
109.341066836064
109.532748009458
109.599012843241
109.571369433086
109.558520527292
109.42855543222
109.409692439281
109.437033840927
109.473049028148
109.45714298766
109.432692015373
109.340727249368
109.274081168889
109.294213161508
109.350065303328
109.205208210526
109.165346054902
109.264524540904
109.251750577987
109.221782716425
109.248651324173
109.252956439792
109.282067993005
109.276884200213
109.279908711264
109.186574811916
109.078567076942
109.080897670092
109.190423546042
109.27890659247
109.268458721966
109.226028583237
109.397558080404
109.441409055711
109.430246794997
109.379968680681
109.425053387127
109.378844703971
109.36987992915
109.391685975903
109.350049868989
109.192709329001
109.0807156323
109.136405221114
109.19697588638
109.038661127135
108.983757598634
109.038665517205
109.01358915185
108.876528682641
108.740473603595
108.661047141123
108.614089907139
108.507736590572
108.433469256536
108.335029801814
108.282696561822
108.211060969146
108.117859002833
108.011192932174
107.947092359477
107.803461291383
107.668269886039
107.473332193846
107.418238044437
107.365236779396
107.13124140986
106.821870773018
106.530439799775
106.28553949811
105.995587169018
105.664772931157
105.318567594577
104.85487767944
104.548800141042
104.308911039187
103.921125803742
103.513914431388
103.324415892719
103.20484296541
103.093938285087
102.979102089234
102.866100885244
102.746668609191
102.567022447698
102.238929630779
101.9144118093
101.52609226028
101.11849480944
100.690076738206
100.098321591225
99.4779495164844
99.0519450144103
98.679549649678
98.4086801337935
98.1577154439208
98.0979767544231
98.3065340935576
98.7229596912472
99.2234052718571
99.84895673441
100.462721049715
101.047348376758
101.515507549393
101.878385346737
102.169491375897
102.445094699697
102.684976181174
102.924198548017
103.014740448769
103.168396676954
103.390790158582
103.536960790788
103.572166905624
103.760521333006
104.008514575887
104.251725768144
104.444775524857
104.654910180231
104.749304002996
104.820043742089
104.807877151854
104.744496698704
104.700200497511
104.598929986383
104.386312150059
104.230911581832
103.991464481418
103.672532760374
103.250005939521
102.66561066375
102.01023968101
101.565491855886
101.321534428961
101.403006602546
101.823578608691
102.576342762082
103.33460450601
104.024417245773
104.659885469238
105.242054330265
105.721961294097
106.09875588856
106.309367736679
106.548731110687
106.755722398118
106.901938298686
107.039918627238
107.138246035765
107.181302544208
107.227272961216
107.230346929232
107.274852764947
107.32259491273
107.337661147887
107.364719571267
107.518320478881
107.576754240768
107.57445201353
107.53719452061
107.548766069062
107.62004013503
107.704138605134
107.694955091841
107.697775160553
107.717960090222
107.743134853883
107.66800612711
107.678051772054
107.686146424006
107.722424775734
107.748012265141
107.774446709559
107.798266016539
107.828237220162
107.738377796007
107.72899201669
107.79223991828
107.78848307257
107.755846031556
107.785911858856
107.779881863345
107.741243077756
107.691461985177
107.763062696297
107.849334435697
107.868717320626
107.852951222629
107.830758664841
107.764161070383
107.814585237888
107.851344566919
107.816967905479
107.758638640061
107.792227646941
107.822653213513
107.840229880722
107.798625914272
107.74349696119
107.678716036708
107.68969203942
107.753610960055
107.777434159702
107.742843155874
107.774678793579
107.855325715997
107.910084593491
107.891188190276
107.869904705107
107.833788419464
107.807814946812
107.756056074871
107.765811364833
107.798653459712
107.840318208803
107.814338457538
107.772625927011
107.720602599287
107.753633255147
107.789974649314
107.78777715781
107.739373623024
107.712576786559
107.716328190976
107.763487258115
107.700498584094
107.678078178691
107.724869998567
107.722010973452
107.682504922775
107.643723363284
107.583408678555
107.601898497393
107.617254093708
107.629352794764
107.624460720681
107.606501891202
107.576191292446
107.587142799749
107.558980205167
107.558426741365
107.549763232519
107.630061303766
107.626777615497
107.591611260739
107.612016505825
107.685984203303
107.657352898187
107.625117228061
107.61559809707
107.649513892397
107.64112875449
107.672119852532
107.664081590635
107.635373093284
107.608378088076
107.674740595646
107.738773418718
107.757913914532
107.713504813732
107.678524981001
107.645103318909
107.67876667054
107.699994360299
107.818741511168
107.784400496557
107.660290170942
107.673938808823
107.840371778443
107.954919853622
107.979263361084
107.95917899829
107.982981431153
107.852303016519
107.784594761997
107.919971249845
108.002734861164
107.929394673857
107.93512747655
107.898018333458
107.905103116851
107.787810378588
107.772801275394
107.843645814
107.911969779066
107.944293026902
107.974228021108
107.891243131692
107.92049533952
107.972329935918
107.986229655865
107.983386239254
107.984690147083
107.882214866849
107.939744352394
107.929899263499
107.904859179208
107.868423720114
107.828857783783
107.795136323704
107.831718816093
107.770527113073
107.82295296911
107.88090866776
107.88502997483
107.745501431376
107.701894263954
107.743115430722
107.796371286861
107.743044896659
107.764776458674
107.779197570045
107.803071037458
107.805488809225
107.850541724489
107.810516842201
107.775202694065
107.71070643624
107.735694961706
107.756350952457
107.756860506048
107.679150062253
107.705001164248
107.747344829964
107.749582699888
107.641545773531
107.693171588808
107.725595097898
107.614774983169
107.555695598541
107.709962714005
107.667582894721
107.613686493762
107.665229276954
107.76307021036
107.726850779976
107.607509289236
107.453932800391
107.479815523846
107.522579587731
107.585904460917
107.553411820217
107.62088074965
107.684685079807
107.653932858598
107.508352030519
107.483265636678
107.414161241265
107.309886752793
107.282572145427
107.303365333583
107.249366465601
107.343566699964
107.384439847721
107.36833420184
107.37235354422
107.378630028417
107.343617122951
107.305322309397
107.235294668747
107.344930893856
107.338744009845
107.207100249237
107.088051880746
107.113460018162
107.154250811646
107.166911886004
107.122338470242
107.174844081087
107.112261711375
107.060350701461
107.006648127211
106.992390684864
106.955307651
106.956644644111
106.914683652766
106.911744575876
106.946439068091
106.94622009589
106.783446273569
106.745598762859
106.798512425271
106.749775322229
106.589263261158
106.553441153235
106.574289038629
106.595679969311
106.473108105852
106.203726550974
106.080100669633
106.040432013545
105.809958621968
106.337618124381
106.801044407274
106.51024900878
106.649494149669
106.753423555714
106.753608848728
106.684366812493
106.599406020516
106.59577796358
106.477214518715
106.22979364249
106.191791990161
106.303421108777
106.4690263095
106.648018666665
106.698748607919
106.812395648185
106.640392356762
106.128535755035
106.069331568271
106.564189344279
106.432585735157
106.09583781912
106.164395780972
106.006947072556
105.988417521782
106.082771349771
106.053046694759
106.056730032732
106.121717668633
106.198271655768
106.133519927967
106.233834525136
106.334346591121
106.341866805251
106.310750844991
106.45838628919
106.529034815435
106.569436922356
106.50485966918
106.472765101645
106.582447633042
106.708105359078
106.631491374715
106.637147148256
106.720293043017
106.877570188325
106.876117364598
106.868014637726
106.86647207134
107.073453431334
107.252286121894
107.207908943195
107.300346003306
107.552837147722
107.377962702694
107.245836987486
107.30581343381
107.519543764107
107.624998229363
107.578742700267
107.386081572428
107.711331014784
107.858414572187
107.751328765826
107.7675077237
107.83839743587
107.690816558454
107.901428228476
108.115590272194
108.268295187816
108.257630873884
108.328199944824
108.209585068864
108.173287232271
108.245373763422
108.255690468731
107.928709103422
108.155547058235
108.457677928129
108.559234121908
108.376986349985
108.270163232566
108.349453378613
108.852467888218
108.796560502088
108.718531715346
108.955862840089
108.991575311717
108.560412193896
108.531890429019
108.913709725336
109.217990141909
109.141698016521
109.114549123506
108.987086216587
109.507698897523
109.479337666336
109.555358426323
109.979118357849
109.96648217777
109.648055844929
109.788598454754
109.649412327304
109.637646764908
109.597876371717
110.028788447276
110.413362349433
110.843050692973
110.920469586543
111.083789360133
110.913251062142
111.478760166697
112.502048048911
112.422769515448
110.999489021677
110.270674116205
109.589697389308
109.249267951412
109.12045183243
109.353987952943
108.96221564032
108.268052601403
107.876504056014
108.072105803642
108.094919889294
108.067993781828
107.876638261116
107.380418429231
106.956784037099
107.08739704202
107.03204595691
106.924534349254
106.956926536867
107.08272961105
106.887541505481
106.837004405029
106.590879324887
106.467617299983
106.424753223124
106.544054500694
106.56825843363
106.60585086877
106.741739800294
106.895037227118
106.578049303149
106.503015691067
106.808807798135
106.89019649822
106.663089486743
106.707134564888
106.600801793848
106.60165664669
106.557817069202
106.619695859969
106.822334527795
106.843203398241
106.61296098923
106.794316138372
106.981102296522
107.059704479136
106.8258942516
106.898474700486
107.032533121495
107.120903694392
107.205789391485
107.281382116716
107.190682537402
107.298880577842
107.327367361997
107.4167989652
107.349252424517
107.87759576907
108.727615710276
109.418365437948
109.234086115902
109.160517559889
108.87284939792
108.69388631178
108.687153979228
109.132286498929
108.983489119079
109.228781191415
109.169242455194
109.069674687252
109.177590193834
109.4378653077
109.317158223343
108.844398221896
108.438771232034
108.734909213305
108.377037011783
108.339468095393
108.299366418754
108.360188214161
108.321110082162
108.359059160065
107.684832662934
107.581239935212
107.778786050956
107.811282252235
107.595151253788
107.578318329707
107.541428813479
107.81709741744
107.660387677373
107.552836150133
107.445791491271
108.181102339265
108.331079784151
108.731883595131
108.642831148854
108.155788132089
107.806376602398
107.950595770528
107.850249029747
107.956277028823
107.677028344739
107.267538237483
106.846792373468
106.995949203327
106.863100552241
106.577288210633
106.210616036208
106.140888812942
106.039483967416
106.010201741363
105.867535490189
105.890526656339
105.429074615683
105.414722049704
105.310453080212
105.415858518795
105.447343129866
105.631617274504
105.522793783756
105.378255497268
105.172487320369
105.181956472342
104.931946563182
104.997452018815
104.994969333997
104.511872575408
104.784373081153
105.124951877489
105.170265586221
105.139744527472
105.017209581406
105.06748500057
104.995464589102
104.970711176882
104.869970199423
105.023313218948
104.86783355276
104.686929215903
104.584713157439
104.80853765069
104.580597736094
104.562703398637
104.634837684901
104.624321633206
104.601386953521
104.677303397066
104.623693629372
104.695397964853
104.693649863926
104.64361494476
104.595804631355
104.268950090829
103.99942746063
104.138569807419
104.186077530773
104.374843079934
104.342459700609
104.441876284209
104.253327340923
104.281713038088
104.190585318976
104.329786539228
104.10033196848
104.162213478745
103.91615051926
103.567369635041
103.759636680084
103.82909747866
103.746221342117
103.653172252299
103.607425774258
103.760128876296
103.39749531401
103.345121328538
103.380054023315
103.181767227276
103.419159986196
103.362048295789
103.447596634429
103.386784075824
103.373938502414
103.405003251603
103.240773695161
103.130934947038
103.238955240855
103.267920107569
103.220406707185
102.982838948112
102.808722477819
102.956312321478
102.935605909112
102.947034711221
102.65862503712
102.35620650184
102.651683050204
102.809764159342
102.744511244195
102.654371733266
102.796347270926
102.449476236249
102.626779598073
102.370859006278
102.550017690666
101.96568944701
101.997087307154
101.853151194005
101.936570127876
102.224062200607
102.057193481936
101.724972118294
101.805083154932
101.424914692091
101.13492519276
101.01735285549
100.304657410706
99.7134126428216
98.9496495028518
98.4014275924934
97.679254806827
96.6318540295733
95.4571895506743
93.6648147733224
92.1458303422942
89.9376859375272
88.174172579896
86.3290519681341
84.102825106329
82.6935273630207
81.0356617435748
79.4476467346871
77.8055085038547
76.3069256976766
74.4778463667503
73.7020018095367
72.7930505299854
72.1465461668927
71.4266772918168
71.1699583837882
71.1224866014159
71.2638966281588
72.68671011829
73.3995220502186
73.6981589630161
77.6673628340845
78.0298323120869
80.8802216440204
82.9864696611021
83.7944959865139
84.5146600369876
85.6669977502403
84.9625641101022
85.8608863461128
88.0182921050727
88.6978812306055
89.3986103190618
88.8685583416644
89.8508785207577
90.7533281077967
90.5890231964761
91.0865136120484
92.4923183264426
92.964398371029
92.7566647685732
93.5775282987594
94.219643462603
94.6409827584121
94.2716782537732
92.7259206651045
94.2058553481607
95.8091973320802
95.2329709049844
94.9437515016045
95.8689458324735
96.5578111362259
96.6108128819991
96.6687210015265
96.0077493638236
95.9425376189456
96.8641230472924
97.3713168951408
97.3713391892974
97.2339517489452
97.4525769400363
97.179878223698
97.5253625416064
97.8491651672634
97.5794838273347
97.1796467669482
97.3929129981585
97.3405253953848
97.6432589848077
97.6438106679651
97.929030256136
98.1311393155658
98.3399739358018
98.4801781386515
98.7540320864335
98.9207986451805
98.9483801384959
98.9316104166872
98.9904532569524
99.0106289490405
99.0436328181316
98.967705481305
98.7993507632446
98.3857920065693
97.6402836053142
96.8057085527004
95.5282890492578
95.6308050532013
96.6203508638342
97.1078515920622
97.2506322478291
98.0166094075934
98.1814382962201
98.6957087432847
98.9048559523081
98.2074936728232
97.7723600675267
98.2778959738649
98.254286438728
99.2748022539769
98.9029418144432
98.9865197136119
99.2384844856007
99.0320443035258
98.971744082723
98.4189395389659
97.9374000193721
98.7286151690601
99.321275040277
98.994133242796
99.2249429040339
99.1385738874347
99.3849098564577
98.9991060050593
99.0494541415659
98.825374566464
98.6452989551073
98.964477838179
98.450507607011
99.0442642082114
99.1977370078546
99.2944504937949
98.9559448654451
97.5988738192985
96.3201224032739
95.712702062231
95.895919981013
96.9019150505611
97.8124837323045
98.4952404706859
99.4511478642153
100.03096996502
99.9694970536673
99.9166617461173
99.4993546131433
99.7379360361227
100.024007947606
99.9297876527755
99.8042164851145
99.3815262767076
98.9108168941398
98.2923860067666
97.3735822743884
97.3645258558481
97.0310555671545
96.8596163171168
96.1063586068931
95.8315079210301
95.3661635318564
94.873167632169
93.6662177756423
93.3240109285034
92.9739499642292
92.8010753392625
92.7143841774783
92.3881053131094
92.8208108077853
93.4978043699466
94.1775102988872
94.7483747468307
95.0698137482444
94.8066155532341
95.4081220939079
96.0877069474496
96.8596698152892
97.2887042140561
97.8090641229792
98.2043962513417
98.331396637485
98.4034169017748
97.876248649445
97.5338889814868
96.8709831452208
96.1016709828929
94.8140998411554
92.2792009765644
89.40264402562
87.2300686085402
86.7416808161666
88.0320761372265
90.0359581450941
91.2749880777422
92.4206762026053
93.0199066511568
93.5913419820235
94.0958460001268
94.490507018867
94.6199698635039
94.6680743905459
94.9211490522183
95.130305800655
95.3223861583327
95.0249441304757
94.7063276908438
94.1249987086363
93.6360944547428
93.2976746386388
93.1675608176397
93.2632080888531
93.7463330936783
94.4000932001533
95.0915125355858
95.925666304999
96.802812326367
97.4197155874577
97.6506305228866
97.770191495942
97.8469774943319
97.8412566316313
97.7586005528658
97.5387262323933
97.2847505378274
96.9014380968668
96.299596541566
95.7883060188433
95.7780595361822
96.268308255854
96.8081638615774
97.245009726715
97.4349381913377
97.4552370187961
97.2973351555445
96.9730822493489
96.5299778290305
95.9922864524157
95.4531948456633
95.0379692750511
94.665729732708
94.3362978902611
94.0134381733634
93.6178869105282
93.1029936997075
92.499488096326
91.9049117032827
91.3037689151561
90.5726522755018
89.5844212447611
88.3745643640218
87.0852185111383
85.8732830732913
84.7945346156639
83.8488670775919
82.9889521299589
82.1101616904191
81.2210246300522
80.2919793939035
79.346429562947
78.3871314237298
77.4800752002343
76.5868068712703
75.6958128202649
74.7996578209268
73.8993782423021
72.9620403358932
72.0092962206384
71.0676201467524
70.2439241298111
69.6709507861272
69.3750150977814
69.2430273507876
69.1345885287342
68.9041981183978
68.4961313061201
67.9686147204723
67.3649368811966
66.7238102992041
66.0815814736477
65.4909662760441
65.0401287531665
64.784773978933
64.7493299807131
64.9514402239299
65.4108057518178
66.1387153164222
67.1154123016058
68.2746360257916
69.538937970926
70.7721812214064
71.9309612052609
73.1179367275469
74.391490747313
75.6894087123423
76.9510294527016
78.1703626987027
79.3246511760296
80.3782919895487
81.3777439243434
82.3469270478197
83.2847505398488
84.1788603200371
85.0274984091029
85.8340755389976
86.6274178329311
87.4148554159503
88.1872158119047
88.8975118795302
89.5223029302784
89.9917005571099
90.2286764064546
90.1964546038103
89.9166960300232
89.4741458465184
89.0221816163239
88.7418857506687
88.79996187898
89.3144886191482
90.1764483155374
91.0763448203565
91.7936822855964
92.2964611709439
92.6027578524328
92.7075057987771
92.6300141172761
92.402296236914
92.0595548886664
91.64819485905
91.159516587906
90.6018815554494
89.9425859408561
89.1245244244534
88.1896139473907
87.2349459999112
86.29679386611
85.375693295608
84.4629638691102
83.5371294047522
82.5368467802343
81.3979592254196
80.1002173916505
78.6375075129563
77.0680764869438
75.5171680570281
74.1400712958205
73.0690777358799
72.4121211845274
72.2973504751263
72.7083876207952
73.2665975275666
73.3770415653596
72.7123627420464
71.4578991499893
69.9907249580654
68.5665946226969
67.3030994635685
66.255758641249
65.4289482117329
64.8474411497207
64.5294560527463
64.3982314709674
64.3738114134189
64.4273774131793
64.5280538529544
64.6859323939241
65.0045313357937
65.5838777690359
66.4588704164535
67.5938305753121
68.8302625368325
70.060181309908
71.26477343108
72.4317261065275
73.5288010219674
74.5613784448259
75.5462889742065
76.4679678677087
77.2690437080772
77.9182286894926
78.3594767847208
78.5662643871073
78.5748568285568
78.4162957556568
78.1558615645636
77.8874569559944
77.6938276264017
77.661997700026
77.8286123825883
78.1645935029059
78.6000039884453
79.0946559464899
79.5999443395407
80.1094751260124
80.669337027123
81.1611889440844
81.1946685825661
80.0468757071891
77.1642058085821
73.0378213579457
69.2523781814462
67.5344079913806
68.4343920158378
70.8344760968007
73.292823085212
75.3416925525687
77.0338274852491
78.4165596916427
79.5286944047877
80.4411229610057
81.2472605302372
81.945007127647
82.5012907619154
82.9221026219408
83.1873455473682
83.3355844490533
83.4571823824767
83.5722088997613
83.6370222808022
83.6601547064986
83.6324414479645
83.4594364069089
83.1518276108846
82.8125358345668
82.4870179097393
82.2187693564233
82.0958319150396
82.0866606225086
82.1296915831189
82.1649314490995
82.0519010623501
81.7561529865352
81.4252968481
81.3106429495436
81.4824245243821
81.7769089599105
82.1080724221448
82.4711572835264
82.9004013175181
83.451294257131
84.1260464160332
84.7855390192647
85.3167996206276
85.7847220350346
86.2157286593856
86.533222607533
86.7740800919989
87.0409627877046
87.2981442408092
87.5274539402485
87.7953883964973
88.099190814543
88.3733142504636
88.6219834123941
88.8712401995496
89.0683929244376
89.1732378452856
89.1447857100099
88.9882137816849
88.712144526859
88.2372116898161
87.6052815649533
87.0434876715265
86.6650586953546
86.4719341649542
86.4222220799665
86.4020172226156
86.3772376705858
86.3996794687736
86.4215959840671
86.3742551891173
86.1799363581023
85.7010298550465
84.7325666634995
83.2092953308302
81.3531953824192
79.4390797968429
77.8686025772287
77.2302811364948
77.6874948608835
78.9277791308931
80.5190025436364
82.0149006237028
83.1776667878405
84.025174046417
84.6261091791874
85.0073724224501
85.1693399203391
85.2320370004101
85.2735831521396
85.2761623193448
85.2453122881276
85.2412981142853
85.2323397835831
85.2462075864243
85.4139967567132
85.6642222630116
85.8834573033688
86.1475835329714
86.4529716038063
86.7291417840317
86.9770021853678
87.1755159385125
87.3102832411642
87.3963258938641
87.4695720211561
87.5208594384972
87.5866226381858
87.6587174358533
87.6083797317209
87.5753378210007
87.573258940108
87.5067628952725
87.4773311884915
87.529701408346
87.6353221167112
87.8663839841499
88.0820407126183
87.573203414519
86.2076024350869
85.1702613196703
85.313577418095
86.3134476126719
87.4707025979402
88.5903683625885
89.6327464644994
90.4476898085448
91.0628545542129
91.5053976896829
91.7791636084388
92.0380283153925
92.3553095042129
92.7302726604595
93.1650744535677
93.7094369601066
94.23700460246
94.5576391279609
94.8250234696886
95.1066778190506
95.3949295975653
95.6747871806824
95.8222376421492
95.9347532442111
95.9720748169362
95.8734099067325
95.5934927788837
95.0109182102409
93.846190914083
91.8594841133889
88.7417105287543
84.4233151767576
79.609923208447
74.9931090799186
70.6733301951044
66.5212686562463
62.5244997356561
58.9733616079875
56.4805111890368
55.8439915281689
56.8641319907063
58.9610100543765
61.7525535726338
64.7800885099121
67.3233218291191
69.0894999632862
70.3013636394109
71.2570431303646
72.0946190873251
72.8976335032643
74.1117341731733
75.4360714580472
76.5052358265849
77.8518908479328
79.0053303778492
79.5203831504353
80.1054609707178
80.8426059578033
81.2340032755783
81.5286282831897
81.6963283047556
81.7801714691413
81.6597893582986
81.8493841991136
82.6032972089637
83.4361295660602
83.7916359704415
83.7686256127575
83.7642966868109
84.5440728568418
85.0819840959756
85.0146326855966
85.2882158036225
85.302204243395
85.5159561986288
85.699748987067
85.7156597340932
85.5261044150392
85.4626633624749
