1798
3999.43349933624
650.420452594757
1
128
4
106.758328820747
106.638839782567
106.803334134456
106.940617980987
106.959366209375
106.900053072179
106.826816454663
106.852194254453
106.961831965361
106.895328593898
106.773884195961
106.722371008265
106.79848324225
106.784741800301
106.702323028759
106.618077600609
106.787826858099
106.879256584544
106.85960387958
106.871143270474
106.815310421843
106.677515172581
106.707562593962
106.618908456937
106.573550477402
106.547722362936
106.625549657407
106.519798946106
106.509310602678
106.589185527992
106.82091245942
106.980577489144
106.849290402716
106.629761462629
106.536293965611
106.429909839906
106.440191067643
106.48419768673
106.610732438423
106.295430649921
106.491025493366
106.466735867083
106.613928079761
106.634327529858
106.530310128806
106.534663133495
106.461190538753
106.48373920201
106.411031568576
106.513775779141
106.077275375168
105.890127763482
106.119004559791
106.264064478732
106.529802100867
106.389977570935
106.558808832957
106.252816080575
106.124295663629
106.297251778481
105.968346578967
106.2494508117
106.199760609392
106.19648980098
106.310259250164
106.556864434751
106.167783794989
106.381574333427
106.049041958835
105.790950537641
106.467798411275
106.119511407444
106.712369075045
106.385937746749
106.304864496893
105.761416678195
106.157747865675
106.099369091715
106.522396249852
106.136859834366
106.2641131698
106.501788899155
106.471172543435
106.229926727746
106.192531555182
105.909159078971
106.327510000282
106.290540922352
106.561101408836
106.384777305978
106.54588570464
106.177060311318
105.766705750679
106.026655675098
106.106310370462
105.804098758034
106.384950700615
106.131331726725
106.766150273525
106.600511805484
106.206765314577
106.429056363031
106.063310426956
106.027405271573
106.214389647564
105.771648659144
106.220287310134
106.171450543652
106.353270743617
106.594381916433
106.341634074081
106.278884042414
106.19555376059
106.157671985232
106.011537968015
106.097340474542
106.343190281109
106.274691684913
106.441960850811
106.214790221925
106.092332539742
106.038643973116
105.95016787376
106.360139615211
106.205464024199
106.137959538891
106.385822237488
105.955106182685
106.29305739316
106.071244688716
106.050282548983
105.613951274748
106.185393142795
105.546173073851
105.984562681909
106.226509053114
106.27623545596
106.771183241326
105.715831960499
105.973502087233
105.481505503855
105.985563390281
105.822692529789
106.110603782403
106.305500467548
106.081035974142
106.077522970184
106.118016755303
106.136540094297
106.339880374958
106.089526901729
105.997655755365
105.803681164204
105.876224061608
105.997044709
105.899391382307
105.794229216964
106.045286173352
106.052142874313
106.017269443548
106.156450117262
105.87409579204
105.843586543439
105.630403879408
105.378612970939
105.667159648933
105.559470093581
106.146577536254
105.906318563518
106.276613630823
105.686633057577
105.454785992612
105.066876887274
104.953446583535
105.525913510442
104.963787036994
105.809183857776
106.018350052913
105.956226498715
105.878555131881
105.741575283746
105.410352631077
105.408462521484
105.085285431181
105.439826986187
105.236678920182
104.922391964841
104.902582895659
104.72516202662
105.035258023741
105.159717520427
105.24901941038
104.970917216712
104.733473813031
104.961850332455
104.588322140717
104.823700533454
104.332838792313
104.533488880718
104.772546095439
104.560274133306
104.925134159147
104.802224531639
104.327312985091
104.158094270064
104.382927640533
104.447919915034
104.881919698387
104.856379656307
104.685469473246
104.615892024661
104.631827319449
104.622455222184
104.629576254285
104.589218553753
104.48678158686
104.199516081536
104.08324005128
104.477059780782
104.388411348963
104.203779920836
104.338733659681
104.349484545374
104.532943659066
104.62066578409
104.536764327361
104.339349284304
104.278712085414
104.242993574924
104.393578609609
104.156507193831
103.826877480238
104.031770192095
104.116807756034
104.299547603155
104.192882092229
103.841267648501
103.825266063213
103.958548007925
103.712651513891
103.741946016987
103.848516237626
103.793438144176
103.671962139883
103.839382770936
103.791070151214
103.710843001576
103.696042473378
103.849480324751
103.649541754786
103.546366742187
103.532906058747
103.2334079593
103.229120774755
103.264163760819
103.462918855892
103.63841529957
103.571245418552
103.538226984831
103.474284043071
103.383121626695
103.222507337431
103.225484710748
103.12882295927
103.157951317693
103.230836545859
103.280999884243
103.202543171663
103.055686063735
103.090175253439
103.32233599918
103.210688499274
103.315589109384
103.474251935224
103.366692045706
103.33180407941
103.439427453147
103.214686187379
102.934570981759
102.871011144185
102.948538363205
103.105508096514
103.019200550691
102.914853879616
103.051293931769
103.001753157683
102.898418706042
102.95816942239
102.883527485041
102.805037773568
103.021982893565
102.857552414224
102.460546449927
102.350181028965
102.439136578535
102.382371824965
102.433872167129
102.171978521412
102.081822435389
102.166030455757
101.892283528633
101.946139772693
102.100623574662
101.980481257846
101.976372889789
101.857106024422
101.761401202367
101.842588264823
101.759958775997
101.795686511791
101.89333751512
101.738922377062
101.61919037112
101.634879204298
101.903595345922
102.041083189255
101.922416927289
101.919095418961
102.01328278975
101.801335221917
101.679802976308
101.894940481849
102.000247754335
102.009906801356
102.073551503319
102.01929120794
102.032065429097
102.188578961103
102.03884221427
101.789190430043
101.625146921506
101.591220708425
101.780423675881
101.944725178491
101.751359768026
101.607044457939
101.76825673308
101.803780917591
101.852101708364
101.921260110005
101.924396154266
101.914373999049
101.92991872122
101.890510731798
101.853285589973
101.592071956058
101.54746114427
101.603869366492
101.594824233641
101.742742457965
101.855784188575
101.750716629574
101.749630168672
101.651208104365
101.643483456785
101.563074728776
101.618415800413
101.734022014014
101.629120660587
101.503437639427
101.572211808395
101.720666552565
101.65079031858
101.543190293921
101.605885472263
101.753122510816
101.74961207658
101.532146975158
101.550037346977
101.681852201482
101.541558730328
101.42450433993
101.777022489057
101.813133024648
101.54674045167
101.52394468343
101.553465918044
101.467299163043
101.539031954777
101.649799968711
101.69020848271
101.6518434836
101.547449674884
101.458498383106
101.445814365147
101.407724589272
101.485210381944
101.569053081821
101.627562642034
101.672223372528
101.669974616585
101.486527032738
101.490270263719
101.660932561595
101.623010840507
101.541229623076
101.535062076202
101.591442299924
101.599444310224
101.591554195894
101.648568586677
101.560891115895
101.607238710716
101.602583707659
101.679752276008
101.709093629313
101.688800103803
101.765431254864
101.938959009244
101.866777016646
101.747829745572
101.726427882415
101.636799912871
101.524457018664
101.502068396411
101.682180382433
101.753189290283
101.667963101189
101.722382698616
101.824753406222
101.834678190579
101.818666026202
101.774512631459
101.77909059309
101.916857680298
101.995308924216
101.902332391977
101.762188225048
101.7996508283
101.8984784347
101.900613486609
101.896559134707
102.044397527879
102.074812705339
101.933624239508
101.885740230055
101.868201227161
101.767491503724
101.83618274552
101.925758012694
101.952124904053
102.05002393511
102.184648852941
102.128023457076
101.96209369759
101.982239493672
102.097362821938
102.162534800125
102.208906229819
102.183839192475
102.074056007077
102.051077563371
102.093139024976
102.064485941722
102.031172774163
102.018093817555
102.048216317427
102.159428541894
102.283963375885
102.299255238323
102.182787645852
102.044741544057
102.039314036133
102.193876902384
102.204512632052
102.08741828764
102.084504445893
102.111629692965
102.136208816122
102.033925509812
101.99141442597
101.94067167606
102.048842594744
102.097625519585
102.183785631604
102.278171239709
102.236238278219
101.990656233859
101.891451572328
101.794838813213
101.732817753539
101.646580049861
101.738682274261
101.855105324808
101.921497711545
101.910141218278
101.872077535579
101.864206789564
101.881000996122
101.854596214197
101.817943592521
101.782862053682
101.698550187157
101.659740560453
101.688061888638
101.683538126411
101.676684358337
101.528649653468
101.433515589522
101.520553464448
101.614392778026
101.631533705243
101.59680366657
101.589425976008
101.620501567402
101.62222759056
101.575536115178
101.541040223939
101.604968526646
101.616205877485
101.560973812068
101.69642437338
101.894113286926
101.92580796929
102.051107318695
102.135770353472
102.153960718524
102.07821308528
102.029844534609
102.067774759378
102.162491577302
102.166367919523
102.061105734385
101.908908801479
101.845862531958
101.861811651073
101.812061962253
101.641045127558
101.609969199585
101.604952466586
101.579629698224
101.420225272979
101.203255020566
101.107843005609
101.036337790396
100.875543629402
100.795984816164
100.804688345921
100.778173839828
100.623195399663
100.442440657369
100.341494307789
100.21386963902
99.9487831715312
99.752975436216
99.5038205091424
99.3422679603117
99.179433302479
98.8299481455938
98.4730071338981
98.1266770995107
97.7701642011479
97.285939181815
96.7795997774709
96.24986605497
95.5165813669749
94.9353352570437
94.4576732067755
93.9530696707493
93.5185584816648
93.2363888019415
92.9979298162638
92.8043296903713
92.6737888970254
92.504918632922
92.2459875649377
91.8980708748842
91.506914469525
91.0820843371609
90.5256342364143
89.7808064835245
88.9860694478015
88.1747179533067
87.3825899476172
86.7348029741837
86.096443357897
85.5689213164351
85.1850732142988
85.095535708091
85.4694985122003
86.108406954605
86.9161512450606
87.8405302246599
88.7434515293796
89.6605800130231
90.4213032895196
90.9840745773704
91.5462197730499
92.0940357437403
92.4534504028216
92.7277220511923
92.9450136743044
93.199595830605
93.4837443510703
93.7249842831009
93.925180115268
94.1937065409984
94.5629595272587
94.993660385424
95.3116594106766
95.5678284497681
95.6834178045945
95.7865873470164
95.8237042155022
95.7140897366984
95.6074671021091
95.540710619678
95.3596946859462
95.1136590812293
94.7196721944497
94.2024048487626
93.5591229540256
92.633917482626
91.6248520491992
90.9605430427239
90.6492733307
90.7726804488552
91.4424985901311
92.5762315289374
93.7793184611403
94.8841739866063
95.8702774158092
96.7545853154089
97.4857210692661
98.0762540647034
98.4979603343897
98.8915180248853
99.1818012263303
99.3579057833124
99.5630430269859
99.799137379402
99.989017237495
100.082900784933
100.119933805981
100.190696531156
100.268274640136
100.345018502764
100.396135388476
100.51148495735
100.591268900214
100.654530075405
100.662770168405
100.641105393745
100.711026930893
100.845168450772
100.87939408414
100.860652224128
100.853961396669
100.917472543356
100.99184106978
101.084210533081
101.128281820363
101.157545997606
101.158441336681
101.150827563323
101.184899813345
101.24401141257
101.178937827837
101.171367548327
101.233484346961
101.272745235637
101.318075555365
101.345418250268
101.315210882127
101.279683771754
101.230517301867
101.301204720311
101.408357653602
101.437985288134
101.400724019798
101.35836415346
101.365567894745
101.445613481565
101.483456758419
101.441851140423
101.374392512633
101.437484953762
101.470274503969
101.472902476812
101.48734591606
101.492388368636
101.443185058542
101.414855234249
101.460574348476
101.505437396626
101.539441340717
101.600277554682
101.624282923858
101.616690479827
101.603851601464
101.601511375684
101.604326902405
101.604279825957
101.556032736447
101.580677904862
101.615075241911
101.626014004805
101.636466618768
101.623970225717
101.592100291072
101.64169285776
101.690148353593
101.700379256422
101.636943572837
101.576956318348
101.624422395996
101.675090439234
101.585800780328
101.573955849896
101.618669089839
101.630022914876
101.634173042212
101.546639298599
101.469366221962
101.537857963032
101.578786198478
101.589226485192
101.601840159402
101.548289556797
101.469588615632
101.518843059206
101.551205352841
101.546811580639
101.55318527302
101.63639311377
101.6145737613
101.582693131659
101.612026305966
101.661582948943
101.646841166342
101.630238822155
101.665967312536
101.67827582804
101.605962776021
101.585684426701
101.602261063136
101.642606637167
101.674271602685
101.745172075073
101.743035112534
101.716685731659
101.74891898294
101.824604879635
101.825633059121
101.781365303721
101.768412645311
101.860153953482
101.850169103424
101.776060179031
101.817296372813
101.959655129147
102.074987480808
102.1136141629
102.099945181927
102.091941092536
102.02428066556
102.043562264793
102.12668245415
102.16972511615
102.147511288045
102.124585280129
102.028863221827
101.963464173273
101.873564661477
101.883755372635
101.9999964131
102.051203696246
102.019918466688
102.086280438494
102.126983715061
102.208111475772
102.264918287465
102.21521978253
102.167735312679
102.103145418282
102.076861152415
102.239882894018
102.242519491882
102.101960847378
102.000637647616
102.031267615008
102.031438207571
101.974936552886
101.971452131665
102.131747960053
102.09618166833
102.048196082023
102.071094987337
102.021513382856
102.023082250736
102.115758649203
102.102125061046
102.12161961908
102.209762695043
102.216253511319
102.106291758225
102.15158718243
102.203329846456
102.149184427632
102.022604362625
102.014236845103
102.156841108138
102.184656158644
102.022181995327
102.086480748198
102.202686663847
102.175022267741
102.118992560289
102.169211887277
102.149593319605
102.098182167192
102.153435446011
102.199466848902
102.084673259459
102.073653173772
102.14156501461
102.228219705941
102.246874203772
102.247680974861
102.1820661465
102.195544761677
102.15686964218
102.102015344577
102.141087940873
102.199714530922
102.246053605032
102.272679850038
102.141447706076
101.966572131072
101.871403723315
101.94462355318
102.094174273557
102.137644092004
102.009669196807
102.006304236629
102.076887311089
102.088168601174
102.004979655071
101.997307762236
102.045442354305
102.033803763752
101.973338484564
102.085640743933
102.123751807176
102.028522032536
101.961276731472
101.940780007832
101.966425993524
101.954718879491
101.906012701084
101.944045714232
101.875356202914
101.788243311433
101.797104045671
101.828667707868
101.771622166148
101.781030613635
101.776593015424
101.767947449465
101.749198623437
101.712306613158
101.615297086821
101.611621486951
101.697192271025
101.628908962657
101.468391206028
101.442604171673
101.439402936844
101.495065039217
101.482051302188
101.282270042388
101.151894456656
101.14219023099
101.048015974834
101.369301580905
101.630097901544
101.567194001424
101.711267112473
101.714382157934
101.655595004015
101.60813836779
101.667483414094
101.710154393478
101.646416613944
101.488268138415
101.430416023937
101.48443629401
101.492195673433
101.504996788152
101.568503183914
101.71194652081
101.676510453715
101.40269540804
101.35704526941
101.639482964432
101.615183653726
101.540599461391
101.558610245514
101.357452862769
101.287843023413
101.359370566869
101.391132071227
101.374729355011
101.405382653235
101.485340392432
101.472948868669
101.596020338485
101.658515793548
101.575835631846
101.52612292893
101.61115487389
101.645726708718
101.696390270988
101.710819049346
101.740185907487
101.78324581856
101.819811486127
101.716969285511
101.771414484375
101.88813512578
101.89889638105
101.953917006616
102.029176061758
101.963349427544
102.033751517617
102.269558555319
102.347641052528
102.364443993158
102.518087768142
102.485352239912
102.528815687667
102.646868207346
102.702603414412
102.707346295879
102.744155802082
102.653049732529
102.646176190757
102.750528977579
102.93296380683
102.945524007451
102.849557246555
102.766156285062
102.819004129551
102.952576377439
103.173273088568
103.208154096934
103.272419427344
103.170428887852
102.980968196651
103.026550791701
103.099198322938
102.934555294342
102.99621458616
103.129742864087
103.45371931366
103.527185979435
103.110983956674
103.037092635856
103.452815149559
103.501444731177
103.534606847395
103.871821524797
103.991909204782
103.606303530342
103.621650941768
103.995527502526
104.174044305204
103.955643908709
103.928838137099
103.93130152944
104.149555967741
104.170742338261
104.286691683843
104.452573907618
104.44929107279
104.400409023911
104.553010978105
104.429823736418
104.154571411393
104.221888526375
104.649018676481
104.952278854254
105.43119584971
105.45691572311
105.159267048443
105.144314490806
105.672885958978
106.32655468078
106.000502054842
104.785415680548
104.208824074462
103.692716957226
103.388377220841
103.622040639183
103.922165897122
103.528649345076
103.128204040023
103.033607959182
102.979214070105
102.981742452621
103.210212182166
103.236000840328
102.719391229164
102.22145625326
102.282014655446
102.288156602302
102.209603471818
102.250088724926
102.244585376971
102.265640639002
102.375102944722
102.174394500133
102.057559376451
101.905214461544
101.815504298876
102.040197894211
102.315776571806
102.345135817188
102.296594803736
101.964547419768
101.855730962595
102.330254866918
102.464342567204
102.064412233769
102.098632919423
102.207439835363
102.155326826388
102.105119939402
102.303463886326
102.485443230762
102.403920456554
102.243898230529
102.351732190822
102.497418166328
102.625683807363
102.40901983642
102.262323726786
102.305582197901
102.482918296679
102.584408261503
102.702513077781
102.756922823159
102.956085400672
103.07860491289
102.867527557956
102.791908474535
103.309524775451
104.00159804487
104.340830235323
104.073851475655
104.286449600888
104.405433237359
103.960549214595
103.947792616631
104.262054787303
104.74292875776
104.789583460819
104.312864769694
103.893107267208
103.91983218544
104.031235546108
103.8319953183
103.702195881845
103.748074773308
103.715386787043
103.429534266578
103.584396857737
103.764983855592
103.697696895551
103.51332869426
103.700681799013
103.386080887822
103.052545287321
103.210862490173
103.136104791462
102.900736474481
102.857462124577
102.962325821142
103.183657270613
103.315661038475
103.328765424213
103.070738232991
103.192535540235
103.692340103462
104.369056233039
104.567651606771
103.815309209925
103.220210837884
103.161297412461
103.23588922119
103.475816911246
103.288408839814
102.84344749471
102.641745253936
102.684744177805
102.542392468835
102.296111689364
101.979018649853
101.687517195429
101.624471967022
101.752289752132
101.75989676424
101.785056293088
101.520123819864
101.378061565695
101.388157910816
101.431436447455
101.473722807317
101.554694870873
101.606906805164
101.590367414229
101.384946906343
101.342376776365
101.324107590198
101.439521703857
101.397769034389
100.967607482061
101.159768298523
101.451795820348
101.478662714199
101.375256427144
101.304364112535
101.378998424999
101.472371293523
101.452180762391
101.31296932211
101.340614197661
101.365959674156
101.3586219213
101.32085634109
101.381684264774
101.161594829001
101.142839703072
101.154053982661
101.088244222248
101.133209270278
101.175825977093
101.198759788723
101.197753176321
101.217006542105
101.247801945218
101.240450011574
100.99028309503
100.856808587545
100.984755010841
100.977102608722
101.014616414386
101.014588619638
101.076198103075
100.968345335352
100.996258691646
100.960540791311
101.008226789884
100.889576359606
100.914124562036
100.747150827907
100.419574092172
100.678439062847
100.759954099631
100.625087982139
100.431387258435
100.372507430099
100.431631325098
100.222474279083
100.191381215389
100.264341028234
100.063743375236
100.240163871527
100.178619113746
100.199005757237
100.168287815675
100.24881406395
100.266148591659
100.131869588202
100.0536535882
100.152230480312
100.153720361502
100.145169767623
99.9645952103611
99.8483782520282
99.9616790724062
99.9910370440804
99.9563738959767
99.7484848605826
99.5286053110778
99.7883872447225
99.8536049770307
99.8238087375384
99.6886072335299
99.759772460256
99.4755023035464
99.6007307965137
99.4250116691279
99.5517187491721
99.1897935724613
99.236984420686
99.1575069587197
99.0923143026062
99.1747823578338
99.0190672971313
98.7681766489517
98.778871203312
98.4121554004423
98.0007028141155
97.6756189476978
97.0924898704422
96.4967858665566
95.6537144502327
94.7534265342554
93.7254931516418
92.2467438104429
90.6245860604246
88.3341199777997
85.6893693210625
83.0149538002768
80.6862787348337
77.4221352961762
74.2435212288537
71.6014391732059
68.8650878992128
66.3504610141299
63.7742874535396
61.3264118856727
59.0952872525903
57.6284276016677
56.0342842230539
54.7657092600248
53.5254041910513
52.859045145274
52.6292150358543
53.1391400037148
55.2229837191192
56.7312134440444
57.5798188423086
62.9470677397083
64.8538734601967
68.2216456532088
71.7320646400443
73.0820052522413
74.0957380708088
75.6072071969076
75.2310021019358
76.0530076971567
79.63145663988
80.841821629659
81.3422964112225
80.7657993493935
81.6400826750595
83.1819657744764
83.2228053407582
83.8643733685334
85.6439088063624
86.2961742401198
86.0113809325506
86.9091993124643
87.9746303514598
88.4661946147728
88.1024874728179
86.3236995800867
87.8236598792497
90.68757092142
90.2934613257842
89.6297985817291
90.5867060917397
91.461701782539
91.4472932652777
91.3498357167769
90.6757646144482
90.5727276938182
91.9796793540225
92.6364107945115
92.5102530828246
92.3034040540574
92.5448918327415
92.4361955116124
92.7852247133424
93.2561931880406
92.9579546657827
92.423771555479
92.699177183018
92.8056389491503
92.8785979463367
92.8591098419983
93.1163610169991
93.4581143335283
93.7566110117033
94.0060533324221
94.2660574881537
94.4702594522019
94.5348830118286
94.6393047398504
94.7448502428586
94.7816323479314
94.7879312623118
94.7703737007722
94.5823648649206
94.1086796126432
93.1511214941285
92.0181403129127
90.6051104623637
90.5691749379181
91.8678502566263
92.5718670253502
92.7334378509432
93.6557109179482
94.1670779885928
94.5951455606339
94.8339349533001
94.2972656999998
93.84710776784
94.9336233470203
95.1831571406991
95.7653816133457
95.5236629513721
95.5488302388754
95.7920085643976
95.63141497142
95.6198709592548
95.3468138471263
95.1189137716721
95.8968505663377
96.3912394377224
96.0027346230812
96.0535528270558
96.1028562445352
96.1769152596593
95.8937685407324
95.9397211677619
95.9031298302142
95.7685972061922
96.2078392846636
95.9962666480083
96.3375690718881
96.4385898250645
96.4119524510567
96.073460457197
94.9582867447534
93.5996498584938
92.3394878377435
92.0657740602671
92.8878987621322
93.9842667983896
95.0537956186414
96.2676877824843
97.0812798376244
97.1209825928655
97.1288015376995
96.9772870405803
97.1147881120861
97.2105210616769
96.9922645390041
96.7790921548465
96.3776350987081
95.8079897939699
95.1773254384024
94.4004531718727
94.185579549772
93.5854306858529
92.9493037052264
92.0459226977381
91.5754725026119
91.0341746504654
90.3948206181483
89.3649443330358
88.8872528429902
88.4207579298973
87.779117769103
87.3201284774921
86.9118870903691
87.3876567436722
88.2621570526282
89.0889752201198
89.7784096524412
90.2807369501053
90.2704890144619
91.0661006445111
92.1452701433888
92.9969810886128
93.557277204456
94.2227426720415
94.7721665222665
95.0071577191647
95.1591871826894
94.8729493224492
94.5980363744493
93.9778581397704
92.8402277801511
90.8487329563471
87.3527279759869
83.1746871789209
79.9592363517822
79.0811266235683
80.6493432086269
83.3453288187524
85.233065872047
86.8405777998657
87.9999858154429
88.8023796677975
89.5156603676681
89.9750048532436
90.1146167127666
90.2213514512485
90.6081862544341
90.8802927378234
91.0061842389135
90.734070505974
90.3225364254015
89.6545291774514
89.0121218680333
88.5701812656732
88.3121481255476
88.299803395494
88.8157644334885
89.7206413152161
90.8156284635638
92.0983007142279
93.2117807518326
93.9177103355885
94.2500017098123
94.4407652653087
94.5735479934302
94.6371037339674
94.5766843808215
94.3309544465264
93.9613128044524
93.4158864206802
92.7371217972945
92.2236023535875
92.149167532585
92.5859170722817
93.2336868561375
93.8303849554239
94.1875836634775
94.2501596036216
94.0603679997231
93.6676586329101
93.0949254606453
92.4236638697749
91.7792408693357
91.220514303717
90.6824298781011
90.1960014622832
89.7295153776061
89.1641691902819
88.4433808706692
87.6233862865361
86.8014447691943
85.9564766758692
84.9248643877072
83.5308123342968
81.814254812056
79.9389051000046
78.1428899868503
76.5804808301143
75.2090819650438
73.9256398779499
72.6330802646696
71.3017286268367
69.9037346585311
68.4838542921984
67.0685463729277
65.6936913707411
64.3594774196983
63.0519019543386
61.7198809737301
60.3353289217585
58.8763157595963
57.3826527789564
55.9426247861289
54.7004418882646
53.7906215364835
53.2937667926705
53.0774214429226
52.9008762219966
52.5354447860601
51.9065019997774
51.0782311891487
50.110561937481
49.0481213870307
47.956793037832
46.9427937687256
46.1253693637279
45.5625543878595
45.3778778126855
45.6356533220338
46.3391355831048
47.4872117444904
49.0886545034096
51.0337066724781
53.1231178245867
55.1367921247063
57.0172942030542
58.8727377005553
60.8169628525208
62.77895935184
64.6722455910464
66.4938295160066
68.1918930738222
69.7556513133681
71.2332638496753
72.6344799396877
73.9673711667451
75.2445778443437
76.4849662097031
77.6774829069187
78.8322498463663
79.9723291344796
81.0976553359644
82.1400421134026
83.0553484051634
83.7669091639197
84.194450607865
84.2694123775306
83.981699515752
83.4368071143679
82.8302566111518
82.4115005311419
82.4268846997611
83.0634396780125
84.230456695818
85.501420210096
86.5316817980438
87.2672244024375
87.7537702895612
87.981255003081
87.9682767235373
87.7385151382929
87.3370666213192
86.8336311251508
86.2356946022372
85.5015892859906
84.5891921835944
83.4766914330155
82.2038912304809
80.8925545035859
79.6060647718862
78.3271944969251
77.0117306729416
75.6597065390874
74.2403570096989
72.6471331976509
70.783741925109
68.6354704788453
66.3132494111999
63.9856723073195
61.8576704473627
60.1332611829189
59.0681579336034
58.8808240790008
59.508255316188
60.3923616981784
60.6531903592303
59.7309947257684
57.8392858165851
55.5516394870795
53.2843365458372
51.2360144809432
49.5076425114225
48.1310312707824
47.1434051776692
46.5648307439869
46.3157274326746
46.2760121631763
46.3539162805948
46.5050579268087
46.7671216550303
47.262409415375
48.1635102783087
49.5558027124117
51.3314363700402
53.2669708679608
55.2060099695289
57.0489916026001
58.7913916081508
60.4528096066152
62.0230973280505
63.5142490412343
64.9123477766697
66.1310446587213
67.1193783742414
67.8230067288608
68.1864766894934
68.2257099887395
68.0095111122012
67.6158392875321
67.1851789457545
66.888503910798
66.8231760685984
67.0444781589832
67.5383015633904
68.1828356979197
68.9132481732337
69.6829582992835
70.4984922348351
71.3653279272876
72.1595082286585
72.4199084115627
71.0484578626338
67.015791154033
60.8321169984044
54.891096850622
51.9280503685108
52.9244326901824
56.3253121598475
59.9631719708
63.0244333810227
65.5335331843042
67.5889442766738
69.2911311703833
70.7105517345379
71.906007772743
72.9237247956634
73.7607216845774
74.4207391343989
74.8653805546786
75.1204789386145
75.2931460877386
75.4542206240194
75.5959108459042
75.668095403338
75.6334723132879
75.4246249731656
75.0340064679785
74.5521101340054
74.0788632588065
73.71359289433
73.5416209047862
73.5253698955627
73.6067972743476
73.6772534606316
73.5473507433772
73.144602653439
72.6447498440914
72.4241311952319
72.6247320363343
73.0412712056562
73.4824656283336
73.9526059403174
74.5689207786216
75.3786418448468
76.2792719898728
77.1491831680977
77.9478776076987
78.6338714593009
79.1991859062947
79.6673819760739
80.0622058777804
80.4549367106647
80.8191350443026
81.1359615846586
81.4952830502559
81.9078041457019
82.2976466377502
82.6856181052452
83.0803299542311
83.3831954329409
83.5404282733153
83.5956383990792
83.4993399062782
83.1274699392524
82.4861188935298
81.6686386592372
80.8911294957537
80.3316053509923
80.0243983302334
79.9457368166598
79.9577955878452
79.960206944875
79.9913173127225
80.0701307367029
80.1067493926192
79.8766592556098
79.1770942901236
77.8653585728584
75.8304402370213
73.2118078285436
70.4207167715109
68.0769237101672
66.9828908272393
67.5323884495894
69.3335371749807
71.5782664561664
73.6493331797642
75.3390762689054
76.6062255854612
77.4532802430465
77.963579757642
78.2507010454429
78.3748072685982
78.4338903004649
78.4977280293786
78.4401331598314
78.3471040250396
78.3677629978248
78.4494928940313
78.6478412624575
78.9542534395291
79.2872578602352
79.6989028793409
80.1405270850118
80.5209826758413
80.8650047128116
81.154792653902
81.349429095774
81.4283627650201
81.525620880021
81.7020850282933
81.7820193629821
81.8062492874265
81.7868731207833
81.7198829825146
81.7162370032699
81.7126098719212
81.7089130640727
81.7497567453239
81.9138010145496
82.3287902662658
82.6462994208476
81.9586802670265
80.1503301925468
78.617872952796
78.6167399427635
79.926943408896
81.5972199912118
83.1411444068789
84.5105726464939
85.6138256991913
86.4327805826803
87.0638139950279
87.4991703489027
87.8897737386095
88.3756928082282
88.9052889615399
89.4825459472734
90.1291464671149
90.8400732416028
91.4070073775572
91.8466020658328
92.2593099904926
92.6598320625296
93.0056167899508
93.1650565789716
93.3081579173296
93.43620384499
93.4315122009605
93.1208765476143
92.3012285071814
90.8913169565106
88.4524316432702
84.3058971394989
78.3438968167176
71.5020285092324
64.7983645303634
58.453525534473
52.2756842547157
46.2425947339376
40.6681815854182
36.572721191901
35.2531977506816
36.6216226672023
39.9472558212406
44.5411023312583
49.309644233294
53.0996934335525
55.7072943178967
57.4581924419852
58.8112528238638
60.1816767867517
61.5703684031852
63.0923795608372
64.838607302533
66.5821607286783
68.306865912776
69.7247377687399
70.7025924857734
71.5074792007731
72.3655263120079
73.0745841707061
73.5650099295476
73.8395473874266
73.8806176824476
73.8928979118479
74.3695051762391
75.0784746484186
75.9090628169595
76.6477036438737
76.6645054198779
76.5997677485415
78.2060987516418
78.8178006609015
78.0946520427848
78.3141808549105
78.9124125207367
79.1647215325731
79.3345735922227
79.9167096949527
79.9767900208862
79.7453637374154
