1798
3999.43349933624
650.420452594757
1
128
4
103.157721064258
103.222157116505
103.10851765861
103.05955989161
103.138672146595
103.15482070417
103.325632607398
103.300413428949
103.250081242631
103.214754818216
103.173947639724
103.152316643749
103.199102933887
103.069063652175
103.049589373791
103.056041228948
103.188474718246
103.302812372476
103.210238985299
103.050452851501
103.118996248087
103.28191834876
103.306671817879
103.177726545154
103.14657351556
103.122922150378
103.150227280136
103.007652259035
103.037962212212
103.267646950434
102.89074417784
102.868501069811
103.077260280275
102.92813226611
103.249954556316
103.143491435811
102.95063035904
102.944616876716
103.134936499553
103.058493623645
102.772942548481
103.28316699908
103.099717086859
103.039163841537
102.629551397002
102.850048854945
103.021718860982
103.045669152815
103.359948630336
103.683192343766
103.437645720979
102.625377478901
102.672328479865
102.219069451752
102.362699620402
103.076949564264
103.61461022445
103.373651927412
102.289260132541
103.322154148829
103.216525538933
102.105911366209
103.327194563241
102.746279871064
102.082936472774
103.088980010453
103.499334190282
102.385560693173
103.86227797241
101.965660736352
102.559051766421
103.304101875387
102.540058440745
102.556130345613
102.575327498171
103.196694948993
104.179117651193
104.674354022213
100.770003669249
101.350159011829
102.245769922194
102.921063974163
103.256363470836
103.111600640415
103.025528679216
103.317938747859
102.255749804097
101.98666083465
102.328548114171
102.561423435591
102.2038647283
103.153770621355
102.853062350589
102.976142782632
104.155834675851
102.256037427599
101.929276633926
103.805776320964
101.537643882343
102.418977188553
102.861196628218
103.4779226336
103.664361694692
101.888419026893
103.127951353408
103.644922151863
101.434831246661
102.969786563216
102.624561373604
102.29738963717
102.738177520515
102.776873379532
102.904726415218
103.155821608487
103.064505441306
102.687065192253
103.297391256714
103.164977991145
102.319653726238
102.942477141793
102.755434705962
103.286547229434
103.26898819452
102.382712554768
102.951409314396
102.387777030313
102.636224081331
103.387170882291
102.836225223053
102.662644922083
102.611095690134
104.074976351187
103.287876708866
102.845232267412
101.420277564282
104.497090573461
101.869503697322
101.311586998355
102.484036206899
103.148875566056
103.784789576993
102.140560361007
102.435171315135
101.71593038777
102.533044330229
103.215856000953
102.522666494213
102.882629639499
102.516129456769
102.48721831361
102.643733441254
102.724801577537
103.58551681011
103.407213508383
102.39770219947
102.100415243329
102.183938313056
102.615375614907
103.182164587839
102.61383649411
102.241949109603
102.805087908585
102.539954983815
103.117949431864
103.369439065075
103.466571405212
102.246078999591
101.533734375476
102.48258706804
102.421837090799
102.911859022069
102.35714199893
104.117226035789
101.981289417942
101.19212568339
103.022720854312
101.396903186541
101.20124702697
102.053489986431
102.297768583413
102.34380661537
102.24091578564
102.720686571533
102.479050131285
101.334008021765
102.848287430223
102.861544743221
101.818668618388
100.538404777555
100.760232645683
101.791494927872
101.738854079045
101.804297185415
101.679407880238
102.015099598782
102.003439560515
101.74976131835
103.347888706945
100.927956303186
100.2355862023
101.014935617794
101.679686953775
102.313117286812
101.706581654119
100.756190660463
101.429692673816
101.567494018198
101.333534420666
101.965431744853
101.437642345234
101.143311587689
101.468923134837
101.840024401417
101.769727698181
101.648013619953
101.743560531149
101.548580808473
101.390808744037
101.778755538532
102.37084524574
101.473006913131
101.050846588401
101.490722034026
101.643932082887
101.698311974684
101.639321942477
101.518025592059
101.352794665989
101.286181713253
101.610186786421
101.925983916231
101.035036613064
100.595429024506
100.857729257342
100.99128476174
101.045832857578
101.079434715595
101.161333658611
101.343163416647
101.157798117334
101.02446880852
101.2532377214
101.108429251985
100.921398056765
100.799618071245
100.806240006669
101.018539840376
101.424926667845
101.222037663928
101.294470424531
101.29817216789
101.250500882831
100.981851655942
100.940211813449
101.036227121484
100.953982695965
101.018381856828
101.235362872727
101.169385632904
100.980033871019
100.848712917562
101.024100726153
100.918278852833
100.977626803977
101.162542542309
101.135286150117
100.996531677372
100.984187301375
100.965590435166
100.905605604604
100.806244419458
100.904892837257
101.071681135462
101.19959506681
100.991379660549
100.923000796506
100.927125332471
100.91217056957
100.821301117536
100.86391917696
100.973528253199
101.07143115419
101.020318115104
100.926769611216
100.899708156602
100.88135653379
100.803524187024
100.751810871899
100.783215019589
100.823038686924
100.811341239358
100.911049641185
100.881620285184
100.754696217062
100.636086205265
100.499698954938
100.270196015943
100.25257503872
100.041723196153
100.00454233224
99.7812491476128
99.7887759274599
100.092432359197
100.280408624342
100.097113073708
100.059099791263
100.122630777919
100.124371399873
100.078960996198
100.192457192512
100.093802910799
100.135562577639
100.136426716556
100.208711271338
100.245499578317
100.320456240888
100.367998185865
100.504696152015
100.307803781688
100.233297964446
100.351722230317
100.528276260942
100.391207764583
100.445322418608
100.602548401092
100.549243712089
100.534316225785
100.654603542577
100.590252614434
100.350187455276
100.311860429222
100.54127557768
100.556284932671
100.555794931981
100.58908738962
100.680375724982
100.716725997111
100.610467667816
100.531541204026
100.652111489646
100.599067421398
100.551180261574
100.517177845284
100.536068820221
100.55727404639
100.551609437535
100.504179135387
100.561387325145
100.514971599731
100.501291697562
100.461724989499
100.475975678705
100.48690253233
100.607963322408
100.627314226041
100.588879707187
100.498454580387
100.477026851521
100.468746000189
100.517231720195
100.549633245534
100.691092400793
100.739739126534
100.699871871003
100.631227971332
100.56535202011
100.476146014972
100.570757055094
100.617614341909
100.590095357538
100.624802498077
100.720740648551
100.685438558566
100.643033377941
100.607145357983
100.737939804978
100.726317961548
100.672470892084
100.642277147047
100.578310012709
100.510642502655
100.616596183249
100.677005605723
100.68339267651
100.609811589037
100.614818766096
100.571702015854
100.556719214145
100.630108188338
100.735343615542
100.743565745252
100.739783191111
100.743519079931
100.698846721458
100.691996569843
100.787454072993
100.75706817382
100.845902193957
100.811234760777
100.728264500067
100.719607720518
100.801145133666
100.83356233347
100.836654358129
100.758725288953
100.774144740879
100.674013030012
100.688759547423
100.734826974682
100.723899631004
100.736931313944
100.796042992333
100.795262059449
100.829304534125
100.745558033533
100.698634688541
100.684853006849
100.745188859808
100.815440616268
100.848100579372
100.781563223597
100.793532768984
100.755955500993
100.734519695935
100.782459244547
100.82117774578
100.854407886635
100.919394108966
100.963265059682
101.00693763592
100.910926152515
100.859358411125
100.883426410428
100.902133218267
100.80501417861
100.817878709719
100.852502939177
100.800773731413
100.715108229877
100.775152105119
100.854408258901
100.933527571936
100.922932667665
100.922224308436
100.879031547672
100.906161459737
100.895174140905
100.882962274395
100.940849180234
101.05647860793
100.963829470918
100.848317041766
100.823149797139
100.799998137428
100.849048072512
100.960328130868
100.942619278737
100.895678588844
100.875428843966
100.843411890443
100.819870479571
100.906650937696
100.904978004465
100.809822722401
100.673338126152
100.747343448248
100.787918416123
100.706533948
100.736818065636
100.860010231738
100.854714141884
100.850922089191
100.831282495278
100.776323835215
100.678964246284
100.673390758332
100.641539766005
100.668280273622
100.678570928495
100.607388896988
100.547538934151
100.531026972571
100.496514514451
100.555671831436
100.565898699785
100.574098332155
100.600676086273
100.650489105367
100.578972394057
100.469293837252
100.420840700715
100.423821494465
100.333928825622
100.290760478565
100.249686995995
100.264471639382
100.285828572883
100.259194963905
100.281998957794
100.302681200262
100.223432066886
100.237436174683
100.260508950671
100.248195122791
100.286968004311
100.271467134075
100.192247762469
100.174557970828
100.208425608417
100.227759010465
100.362142784697
100.555455284364
100.702061003673
100.797482893887
100.84127210017
100.882389414342
100.845317570988
100.822313388267
100.771702009041
100.780392988968
100.8065846314
100.701431275872
100.598254175963
100.574214530011
100.533714306215
100.602460050597
100.650604187872
100.566612765253
100.392801914959
100.23229949775
100.129390516461
100.087923737381
99.9797949115899
99.8531913656211
99.707676839468
99.6598810415812
99.6526156625505
99.5560346932612
99.4687437440863
99.4054984651064
99.2738675500478
99.1349049099029
98.9496421458412
98.7707705734051
98.5380604173528
98.3064844711573
98.0849764570726
97.7785281689574
97.4415459290195
97.1966714219986
96.916901696604
96.5516351150647
96.1499282506613
95.7048294763915
95.2595848820351
94.8673069174033
94.456037053589
94.1673711121557
93.9023440452902
93.6354425987303
93.4142817749628
93.2446794732437
93.0187738918674
92.825154467463
92.562259786156
92.2621600078771
91.9460686665005
91.6709491540469
91.3544841911181
90.9802706920509
90.5937068732772
90.2745713595315
89.8731255681759
89.5025600505124
89.2067152242398
89.0035329863426
88.9188437274637
88.9888227309234
89.1896153752734
89.5909581765564
90.1501982529389
90.8139804259055
91.4563135117863
91.9881749560881
92.4569914189068
92.8585229322437
93.1497824743917
93.4666001419479
93.6555007681414
93.8243366933973
93.959652312628
94.0166256006852
94.1358316781475
94.3295214194893
94.5421762944416
94.7541225720145
94.9602640499895
95.2438174213805
95.5349658852251
95.7880925729816
95.9393247116891
96.0650687294587
96.113495483729
96.0202783493349
95.9219745525509
95.8541166897303
95.7130904018328
95.4812323515372
95.2139165287847
94.9446299844509
94.5185669857593
93.9937640560554
93.4802917659673
93.1402671962857
92.9959950386947
93.0860415291244
93.4859836917015
94.1568568188099
94.9400328471491
95.7653813085315
96.5100319521054
97.1333294137398
97.6753793150571
98.1039168838199
98.390096229482
98.6007532697266
98.7639861932174
98.9571042645583
99.1040832181521
99.2614074541473
99.3495687988933
99.4106720368256
99.4654261064003
99.5079463033063
99.5351481484141
99.5420632762701
99.5744710529269
99.7076792402188
99.8054029184381
99.7994867850283
99.8227848616733
99.8313882855138
99.8432007641305
99.8823055920731
99.9177618439253
99.9916179447212
100.045582548899
100.034308722068
100.089431665756
100.122046609377
100.118830859866
100.171339070728
100.189981703956
100.162927861902
100.196180649218
100.231695093503
100.302295325682
100.350854031434
100.312630805876
100.286921806035
100.267254445667
100.293868137315
100.289673794746
100.280486091075
100.35375855302
100.354208560838
100.346140134514
100.29399792704
100.277687231199
100.365441263835
100.397831865679
100.444260318642
100.41524005485
100.359273978128
100.361137717153
100.389974153302
100.441927442405
100.479669043774
100.440546569981
100.393612125929
100.44773693686
100.465244429378
100.462757965428
100.501746603552
100.55713612909
100.541707339136
100.523726720642
100.563184104046
100.613108509286
100.63333974405
100.628925923498
100.61965766574
100.583515889249
100.572210811827
100.613224028135
100.603139114797
100.628117650759
100.617778892383
100.57850297846
100.623434035884
100.64885339358
100.665406028321
100.647712433857
100.616679405785
100.577265521676
100.551357326151
100.593639604447
100.632193306839
100.624195902027
100.606993957357
100.586491778854
100.570553539289
100.58527938256
100.588076432412
100.590310795884
100.577071129212
100.566139295048
100.584896565735
100.611055935358
100.61515662879
100.59927493701
100.619288474416
100.639752161147
100.673169423569
100.688580209366
100.695422983772
100.754353949179
100.800060930155
100.725209079135
100.73750684155
100.780939037553
100.716638378847
100.719873955031
100.760115998133
100.760327212421
100.776014746596
100.759277915035
100.69784124138
100.649786528967
100.678484489345
100.750822086215
100.800188029021
100.823554454086
100.826872531111
100.84695237232
100.855064367624
100.905032977692
100.962657041231
100.932099383664
100.903728331285
100.88406620537
100.898513202596
100.868118541223
100.843870767159
100.847494396857
100.907700283363
100.985876346006
101.053932602886
100.994859090834
101.004874632828
101.057653055034
100.960619393186
100.877787042654
100.979452269653
101.039862176506
100.970068487439
100.858699756069
100.840310223836
100.834447188143
100.831954324056
100.878229350783
100.993293116134
100.975140605311
100.849065317855
100.883412609464
100.96518960076
100.969294606544
100.905989981703
100.852428844149
100.922263374945
101.013222937712
100.964907947182
100.937545680176
100.988444305832
100.975094440461
100.902759420593
100.833805928147
100.884616053607
100.846878985755
100.772085570518
100.821770581906
100.940324863997
101.011084637864
101.003093438404
100.899774154467
100.853368262951
100.952822141881
100.996887945375
101.045328117411
101.022507449174
100.934394108857
100.948454137301
100.963668905062
100.923129622687
100.862901741536
100.936878083466
101.016554133237
101.03127514569
101.076464518762
101.139594460273
101.11983853227
101.099627050855
101.064458981557
100.984782463194
101.038646719802
101.002152782933
100.985410317559
101.074330625618
101.091473630721
101.009656602388
100.945061448669
100.974175947344
100.968863058051
100.935735454176
100.993972875029
101.067059216084
100.991853966159
100.951031167412
101.073724392696
101.049560283556
101.008460709319
101.090845469126
101.1089770324
101.090594218962
101.064563361317
100.984014214401
100.912269988157
100.950133949093
101.038540382661
101.012157969333
100.947965933911
100.983099152233
101.039443744471
100.914762022593
100.829288546728
100.895322006566
100.964180024035
100.902629980487
100.842539058635
100.810467736241
100.776220412199
100.810577696481
100.802035840003
100.74936828721
100.806944495289
100.784314987025
100.754918514607
100.723979004988
100.670387635869
100.692603483864
100.722160519887
100.698483173553
100.627635051872
100.5816396546
100.575557806852
100.581378056187
100.674803289336
100.741312787408
100.769750751686
100.713613149753
100.698555328456
100.78448658005
100.851442550747
100.936925647578
101.124083682634
101.02029545617
100.961917397757
101.049449912953
100.93513019851
100.892949566837
100.778556898668
100.712991198847
100.527495868098
100.503574898269
100.527579387512
100.732758791998
101.175368406918
101.22605834263
101.135654430904
101.128216367036
101.013038199094
100.806415102735
100.766993341707
100.923868451946
100.984741685849
100.80092588449
100.821731859591
100.7977330051
100.804867193581
100.866007298361
100.826632771362
100.810594275168
100.816707750932
100.859359563688
100.859900967029
100.852649754549
100.788927503824
100.835564185519
100.953179814351
100.946457536123
100.890358723529
100.893174766996
100.929239128447
100.975841947278
100.971066018216
100.91346156476
100.930964415218
101.025581563683
101.062193979982
101.131363807418
101.158306608088
101.115493843183
101.204164108844
101.39795085857
101.528167021295
101.441790515922
101.334708871122
101.287624510792
101.337032412733
101.465450921081
101.570471721058
101.571322208158
101.609709838837
101.625241223755
101.716481210382
101.771588228166
101.708575434753
101.709679414248
101.707326403445
101.628959554112
101.727997504805
101.858382395851
101.85669281662
101.697776073422
101.648464649533
101.815714212665
101.954097958637
101.946399447885
101.953183740463
101.856022410322
101.793203974888
101.708790857671
101.712114635675
101.95197448296
102.065577600733
101.919017416904
101.918055649547
102.027264795725
102.313431151833
102.38679618346
102.143790288106
101.959828824051
102.024123296844
102.115871063461
102.324505513663
102.340633457964
102.395238781083
102.417321002437
102.463907721806
102.70518281936
103.099290660719
102.875550889429
102.442629367733
102.331417330126
102.596446571916
102.775029347536
102.919858408739
102.891806445595
102.407167661376
102.194152970448
102.533591455309
102.512995716759
102.769131010807
102.975857090261
103.269287795324
103.510196386956
104.085269841666
103.968677974872
103.178251115393
102.791845516425
102.900231282125
102.658477806967
102.133939203732
101.731349824779
101.524019237542
101.574609605847
101.713172656977
101.753680449545
101.687476395008
101.365185433817
101.427076547678
101.560039493208
101.509781700839
101.345194871884
101.281228257517
101.247154440071
101.172853320069
101.055603043031
101.0304476608
101.158446200854
101.293148620548
101.28272462788
101.280708154711
101.211967614577
101.18642657564
101.23079332941
101.268912183587
101.294887148877
101.336275139599
101.212582939225
101.229519949879
101.24826665277
101.090428331191
101.055401768643
101.359153528218
101.578460026219
101.606470271592
101.611022595154
101.466970871371
101.258451062004
101.278325985816
101.313543072278
101.552848989132
101.536736084041
101.326732292774
101.396333027776
101.71084356612
101.672572983809
101.465417449209
101.577968600285
101.844621403663
101.924556972026
101.938397824894
101.853791620363
101.895458653541
102.116239372584
102.517608449052
102.919344228847
102.756676202172
102.496635768892
102.66554915953
102.718977527636
102.792929517708
102.924538146312
103.140445499293
102.929956117579
102.47978223268
101.94227898452
102.224703346317
102.665089202541
102.567700531736
102.44719805748
102.646378674337
102.805697384411
102.65503481874
102.22116881512
102.040330892958
102.00700826562
101.967112042991
101.934030896743
102.417069659834
102.491996428368
102.282100301573
102.26335110549
102.228009016508
101.965761582676
101.92993194539
101.832690237916
101.84571434844
101.946766224283
102.234149886798
102.20957882793
102.064461317378
102.04414323814
102.571387808193
102.794966325514
102.550465781297
101.957710034932
101.861566356518
102.042624167024
101.866743889133
101.492409710883
101.370152381361
101.523769785186
101.558578243479
101.141833544071
100.967240662787
100.847021852034
101.005507956764
101.046730669744
100.971174139631
100.74754227209
100.930689704723
100.858874771355
100.624572651383
100.745714304696
100.766651731805
100.704621652771
100.772221672677
100.852311180404
100.877095723354
100.965286507094
100.990023762206
100.981620189361
100.756875822392
100.996823230532
101.051532135664
100.711151722864
100.718465537911
100.819845502154
100.995227984505
100.891050453938
100.715200310877
100.715362732167
100.821317516239
100.79692674654
100.776151386951
100.810402477669
100.976789934327
100.960527853086
101.013753558631
100.932441752944
100.729195095145
100.841033185983
100.857508818006
100.843410427111
100.841239332139
100.897349714063
100.929129738231
100.938645533301
100.855006463405
100.957666485115
100.999207821614
100.661943106097
100.574942578482
100.586453318954
100.714302290125
100.766209272229
100.728081619461
100.695787551321
100.700074320545
100.661653128519
100.690187171275
100.700467886809
100.55059019562
100.719981019123
100.168577089511
100.030919237494
100.171247049943
100.225882826196
100.18318799714
100.074536268209
100.16172792715
100.276242366564
99.7699677323336
99.9822832660863
99.7489133639682
99.691342820239
99.771304778303
99.8804426937826
99.9024375441147
99.8144658301876
99.9096632855961
99.9718616371194
99.8194679192701
99.827696795943
99.7751043559747
99.853808872615
99.9075447045873
99.7918887502414
99.6513568949146
99.6069683948093
99.6709433063261
99.9031619870975
99.3984758931
99.2721961433449
99.4012123424356
99.6021979447133
99.4389751527321
99.600391967887
99.2844602477422
99.2819784299695
99.2000792693106
99.4920248181253
99.3971457984915
98.72931482964
98.8909682997859
98.4974375088606
98.6144419772285
98.9141480460595
98.6037769916049
98.2006220757868
98.2380067142966
97.5557214401664
97.4005849025575
97.0642475135098
96.1353256444101
95.0207430699505
93.909494829434
92.7531635966912
90.9062277881621
88.9810497863258
85.9193361408353
82.8276430390439
80.68259996675
76.7220615076315
73.0805418257577
70.3869457545178
68.0033967039133
65.6167869739926
63.395933523037
60.9514749170721
59.16989100801
57.3273191391981
55.0551100015149
53.1712618447567
52.5670785748672
52.722450590856
53.3492094556834
54.38463141897
55.7642245964813
57.8524501083433
60.107689690153
61.5161916747477
65.7963163488626
67.4742161547462
69.9630337593914
72.9366148586111
74.1542518517356
75.3507723240982
76.8309289120044
77.1822473389684
77.3473614979226
80.4729074287561
81.3246897448399
82.2910062298727
82.2987642636117
82.9206593413303
84.5487591437878
84.9006158687273
85.3522508916919
86.8324565196633
87.8074294219856
87.8151690003089
88.4924682957767
89.5566020132695
90.037024095159
90.5803843811373
89.4948440134244
89.3280756134946
92.0097699191125
92.2798946451084
91.5119201723917
92.0299105550409
92.9423385460276
93.1065288453923
93.3361258709453
93.1821985164657
92.4159102860232
93.2368307696093
93.9879257516435
94.1922939509794
93.9212738859512
94.2548623390404
94.2259734667412
94.0511669474292
94.5175600341528
94.7166097760806
93.8033648045915
93.5894229390095
93.9383630002788
94.1430618343211
94.2992419207478
94.5377648933235
95.057818144771
95.3076792724409
95.5327697688528
95.7167287932328
96.0144572875298
96.0991267553554
96.1906328110337
96.2253323877025
96.3021167347117
96.1911658402996
96.1128365799323
95.7534534283329
95.240240609748
94.1161555544087
93.3544266081725
92.5045842572137
92.0650216098907
93.1422590928908
94.4713469407365
94.7933273570288
95.2791408450467
95.9166310874382
96.2008301298862
96.8332851391941
97.0579118485248
95.8048265956301
95.9007822387932
96.478290212783
97.0145411736118
97.2965950179171
97.1435072138941
97.5753067953046
97.5649117674893
97.6554197225667
97.629087210928
97.1653837428457
96.4836487490672
97.4103236778133
97.5440372652588
97.2558428756174
97.2357452990927
97.5079711745128
97.4793325607159
97.3043352153439
97.6063710994539
97.058531688343
97.2094679601937
97.1243451800214
97.1919643850326
97.3489376512954
97.1729642157906
96.9725185339231
96.2317019700046
93.8914278598876
91.4313901996056
91.8909023147453
93.6514722026048
95.3980409230085
96.4971701237946
97.0590370097062
97.8131840646508
98.1071707060764
98.0206209672759
97.6781126305216
97.5712348357496
97.671779450258
97.4811524262466
97.0940843351862
96.7151112065019
96.1168403800475
95.7282085173493
94.8849080338858
94.2091534644963
93.7761103397849
93.6196835920025
93.0214343344699
92.2191481971484
91.7101471111363
91.4032347714005
90.7325913566815
89.2263291981475
88.5087132153642
88.0633874681647
88.1260095710906
87.9777214348292
88.4839917448613
89.2992768105311
90.2505894062182
90.9465231097251
91.7315032134513
91.9110995039231
92.3820816171
93.2549516269796
94.1732098399975
94.8360826153641
95.3167135066915
95.8346568312641
95.9101545329896
95.9566436463237
95.7568558645624
95.0069066574496
93.7499201715591
92.1784900920951
89.9313707401726
86.218518309068
82.2026187266131
79.6582636356107
79.5647493833826
81.5858974826807
84.509107387925
86.543788230574
88.163228754491
89.2522191057373
89.7905678909909
90.2792490444481
90.6475792554817
90.9629164532119
91.0333197225593
91.2652509294563
91.4078539660863
91.5111483220322
91.2272420591235
90.772518142427
90.1842221084937
89.5300111388286
89.1130464854034
89.0299450165908
89.295192182134
90.0272813312854
91.1478695319078
92.2893745082012
93.3568071176939
94.1471653941943
94.7045368284154
94.9466838937944
95.0040685340599
94.9947065729666
94.9021616597775
94.6547016714896
94.210144147956
93.5811718286428
92.8242187704286
91.9538316817692
91.2573704154717
91.0994012702218
91.6832961154708
92.616211778338
93.5463285284744
94.1228488595916
94.2733637270898
94.0823760220102
93.659087026196
93.0520979519323
92.405742040263
91.7741587926642
91.1741003977741
90.6339830420145
90.1480876388036
89.6385942906596
88.9976008130709
88.2018942208434
87.3248455441812
86.4377684817145
85.5042982545204
84.3330357202173
82.8324433662939
81.0850291164808
79.3070855985008
77.6403095203619
76.1829011551952
74.8685829395545
73.6170198048051
72.3351138940099
70.98558788301
69.5493588715563
68.1216920289464
66.7284418805241
65.385638413346
64.0632466351165
62.7639153580905
61.413401976409
60.0199410964808
58.5673052879922
57.1357705611962
55.8150232656521
54.7600685701368
54.0677053549285
53.7473634079709
53.584029454736
53.3291307779214
52.845236654059
52.1172346994681
51.2132800453843
50.2475939247448
49.2730585047319
48.3848674896009
47.6675798754179
47.2413606092937
47.1446848387031
47.4482768153916
48.1618751479853
49.2382470479738
50.5692354409163
52.1271188594709
53.8256651604198
55.5542091869545
57.1628780266872
58.7045947941947
60.3214545242416
62.0646314635258
63.8439966788352
65.5967722362536
67.2829030357066
68.8922756082001
70.3987053010643
71.8386239011819
73.22168478121
74.5564377336687
75.8307890316595
77.0712136360283
78.2737981911465
79.4424704703363
80.5807938286004
81.6814912762765
82.6994141686376
83.5498825951373
84.149342469482
84.4493888746071
84.3982290397415
84.0347184301122
83.4768657225809
82.9316810797093
82.6687017148924
82.9342723974702
83.7926928892386
85.0663966541181
86.3184907646224
87.246671233745
87.85314501415
88.1953497310375
88.2607660641578
88.0868597500272
87.7300154137044
87.2545880951349
86.6892921673226
86.0613549312601
85.3161909911925
84.3878820472799
83.2621158668309
82.0223823542176
80.7126604611748
79.3969781227991
78.0510388698653
76.6415258690847
75.1565451780338
73.5605628501119
71.7866426423027
69.8260677257554
67.6557037700023
65.3824273924319
63.1877786580341
61.287474643726
59.8621524690634
59.0503284516566
59.0150315455351
59.6354147745689
60.2623950899023
60.0818277315478
58.7375970224365
56.6169754441958
54.3205754517986
52.2521251945154
50.5348536139344
49.1869774339088
48.2352189717702
47.6805773454465
47.4533329271704
47.4588505486967
47.5958002313049
47.8059664253104
48.0689989158512
48.4632588057695
49.1068653998377
50.1330496047492
51.5346938905804
53.1551254741768
54.8557604015867
56.5350105629177
58.1412685697211
59.6794511536989
61.1641568350633
62.5783737186006
63.9089724575507
65.1212557234566
66.1605711985002
66.9773339554502
67.5245208224953
67.8031783989781
67.8390952297414
67.7034962235482
67.455150701693
67.2080698610216
67.1129773762061
67.2928000829508
67.727809367636
68.3508873489996
69.0910684832792
69.834371890503
70.5589247577081
71.2757829789613
71.9515043585654
72.4024845095138
72.0227777621968
69.7419155026608
64.9543854291079
58.8329255081982
53.9412711235357
52.4135422202492
54.4073651120311
58.0718367090213
61.5733832781025
64.4454754467441
66.7572019243582
68.5587112650628
69.9703457148293
71.1661337992469
72.1926552653252
73.0416827253843
73.74262132251
74.2722078939742
74.5923642966796
74.7836097171533
74.9345037423011
75.0692675022683
75.1483935918844
75.1257450692539
74.9876719816568
74.6841249790122
74.1698449365831
73.5832238034202
73.073929440389
72.7437305718735
72.6170201493021
72.6502162737742
72.757822276024
72.8103587816273
72.6377239587585
72.1872733780135
71.7135456242442
71.5920509578657
71.8911260886934
72.3932142398851
72.9049093096291
73.4536774968275
74.1558151667804
75.1085926488886
76.1244340453966
76.9977897264081
77.7350373646022
78.398030685809
78.9644007028102
79.4153853933633
79.7970101121771
80.1864894035407
80.561129575728
80.8974119760566
81.2811912519286
81.7270254245018
82.1390757546873
82.5230505033833
82.8305221742274
83.0577270277332
83.1965526268138
83.1896948381597
82.9868686976437
82.5313887928226
81.8328948308247
81.0407051005993
80.3356236580101
79.8808582509655
79.6865194072267
79.6800109099724
79.763687089392
79.8643516879535
79.945391563123
80.0071873941284
79.8814956968748
79.4565219222441
78.6048642646795
77.1356710098887
74.9552410873205
72.3130625583369
69.6829564304401
67.7327260394084
67.1669007566199
68.1595509158494
70.129663707902
72.3294340389478
74.2446439760802
75.7317815823838
76.7822914904353
77.4492903609891
77.8509100341319
78.0917375754213
78.1987102669611
78.2060138146364
78.1288249319531
78.0977500800928
78.1508472724979
78.2378791445775
78.328185700433
78.5349765724182
78.9039754483414
79.3170228354817
79.7201680334374
80.1474482134401
80.586893707266
80.9860800958066
81.2467130177378
81.382442673901
81.4658654961944
81.548571070327
81.6097907660304
81.6851957633569
81.7614245521806
81.8029660507324
81.8464572588544
81.8723925469965
81.8677737228651
81.8640780429474
81.9124267083055
82.1265678922436
82.426482026003
82.4948444764364
81.6281211486035
79.7640446670489
78.3364524823508
78.566763385188
80.0408099395518
81.8366071638963
83.458390418053
84.7943875657087
85.8118522506149
86.6224949698018
87.1881673181792
87.5867300822825
88.0112363754761
88.4465083039483
88.9552892092751
89.5696513675712
90.2383365704546
91.0039241351759
91.7642983802929
92.3735856371748
92.7924439432994
93.074265239308
93.3324628036601
93.6604945458961
93.8377390142494
93.8460233774033
93.7510370638156
93.3431318990744
92.3777514550025
90.6683947505704
87.8386124630441
83.1933354267354
76.7888147045583
69.7351767985739
63.0681633149764
57.0425759712101
51.3681119034146
46.0223953351038
41.5695788268506
39.1359001220124
39.1446916529171
41.0913927833428
44.4665522698433
48.5839880912155
52.6336473772448
55.9952836593845
58.2816614492252
59.6541781530287
60.7553251937579
62.0387296247132
63.3777234255382
64.7345571596179
66.365738938817
68.2045101202595
69.7803885658484
70.8792778894199
71.6604093002873
72.6370086584954
73.6122682313302
74.0992968268776
74.4795909475143
74.8610038098066
74.6823835113284
74.5943024938047
75.2783663091878
76.1860675532313
77.0232986122634
77.6658663566763
77.6475458941109
77.7296134535178
78.6569644288317
79.3831032601438
79.2770895260295
79.482410150002
79.8772035830616
80.2532287909291
80.3769973727043
80.5654223962139
80.4722718094434
80.6061015336366
