1798
3999.43349933624
650.420452594757
1
128
4
113.912190196295
113.843758646001
113.864739970792
113.873862037491
113.84118662789
113.85640024246
113.770904993039
113.786229402826
113.97385904552
114.06907533216
113.974138460245
113.795810828284
113.868813939962
114.049159415862
113.882141794602
113.645608024659
113.802711104778
113.880467246437
113.776770706716
113.851654019066
113.93963537763
113.814809443181
113.771440852024
113.674953964238
113.595152740497
113.430252663367
113.457258890822
113.548231440555
113.585859441081
113.464147561747
113.578883291789
113.64499565623
113.490457499676
113.439141071962
113.417782216912
113.343086295433
113.279197542168
113.227699804339
113.540914736299
113.396952636416
113.492008442527
113.305365516288
113.65219147596
113.567311161333
113.247177747764
113.198862410752
113.313053925345
113.338057691454
113.120389687239
113.294422435205
112.890121564092
112.608267369263
112.851740216711
113.013725737981
113.170439947713
112.959296899388
113.216311136842
113.030827444549
112.927206417386
113.019880833008
112.72276815019
112.846721845653
112.475026727698
112.621960522425
112.806883434446
113.203234271943
112.758711971065
113.151946934097
112.376504329781
112.423599222811
112.863054246797
112.574819772975
113.439313095593
112.858496776015
112.759666325287
112.021263197064
112.769421867231
113.136308902799
113.763667663303
112.50775550832
112.51361602336
112.867161284995
113.030817313946
112.875440127916
112.956882542458
112.639290058598
113.072457535715
112.739388926594
112.889625262485
112.678860880385
113.140332539213
112.723877022667
112.233277411443
112.601274299203
112.598541828933
112.508705660962
113.051815442332
112.40532503547
113.535416985428
112.867473549657
112.518776840832
113.031369494115
112.649465975661
112.646307023239
112.648949033735
112.208015966314
112.85961915188
112.275311241521
112.684120863664
112.940922781
112.633478268947
112.755656834856
112.75672928606
112.730503081727
112.658010131179
112.884215797505
112.909403841866
112.734180609542
113.044849717993
112.589850267943
112.668572417379
112.683027155614
112.480730375485
112.87382075401
112.487530919616
112.633367798598
112.9817616448
112.497487912017
112.831366785895
112.27741561451
112.452059623283
111.908893616837
113.033405079921
112.119104045432
112.542786423232
112.250126067344
113.039340788719
112.96995479732
111.543761951654
112.032194746587
111.267162589485
112.050917049383
111.605728184626
112.204348964867
112.392253843344
112.371243009728
112.509386909909
112.24001389485
112.389150889152
112.629910098321
112.412281162897
112.422027718582
112.201959230217
112.384900043599
112.357354259385
112.265330007093
112.091040734995
112.360149397049
112.469106517968
112.498524703082
112.590947513734
112.20714160447
112.251970016551
111.97697545053
111.824441937645
112.294530899257
112.262430091235
112.608211527756
112.034919233831
112.739733773947
111.968471579065
111.997135836401
111.41103689815
111.841740394611
112.190654216188
111.131919296953
112.606396041988
112.454842627321
112.201240613132
112.385893608426
112.269406980377
111.975776441257
111.989471534996
111.736132094795
112.191603966069
111.549433943191
111.47738424381
111.338448034543
111.147706049333
111.675920148229
111.748303328049
111.966147514237
111.768757351161
111.573862878114
111.851058804003
111.566570543344
111.877686169337
111.144439550414
111.964995507308
111.857281457521
111.341988107175
111.718757870524
111.511655939694
111.22988040332
111.058831210513
110.991406885561
111.257419757954
111.887986098347
111.741228444384
111.644818126654
111.455300274114
111.522296578282
111.606342767501
111.656226462746
111.522242200776
111.357368446216
111.12606353962
110.959097218811
111.177695740621
111.010263270153
111.037480936676
111.055977556495
110.889031765689
111.311489343175
111.703967333812
111.690182612015
111.394437915257
111.442105266195
111.429863520992
111.502080956048
111.196183145108
111.063939537003
111.059566866837
111.152924396351
111.391484027475
111.246436122851
110.901567704743
111.035402101357
111.108303739261
110.828988941374
110.902381155785
111.076919331793
111.063546596727
110.82948960304
110.887124016221
110.874769550481
110.963949944323
110.8704610426
110.98490599673
110.883284037008
111.000287947695
110.975127400654
110.77969440753
110.696187825309
110.555439927476
110.838030260128
110.894492282028
110.709608734127
110.856689940752
110.897396491915
110.79627169017
110.565013358113
110.654993401963
110.777017912974
110.64768601124
110.487211007511
110.430391107911
110.45735498409
110.457622803021
110.375098970607
110.433851429855
110.405208688299
110.551973916815
110.76868702584
110.767509184727
110.481647203677
110.41479656506
110.46079978408
110.520480234633
110.545859061033
110.535996154705
110.450851972298
110.480099045319
110.48581794371
110.499911224899
110.572755300558
110.414954989533
110.362275287919
110.393402847101
110.366611309706
110.49119707264
110.296751718125
109.907172903545
109.748855477504
109.867130923856
110.007830320787
110.268401711762
109.894886455531
109.7273163033
109.829629078796
109.681190863464
109.555304619911
109.674315956188
109.792336406662
109.800589414039
109.593481014889
109.504197654303
109.592887510922
109.56840144322
109.647048256072
109.713918035138
109.368673691916
109.329001929638
109.561288251396
109.716924239731
109.674817421022
109.569299811297
109.672941341573
109.679222950892
109.276330937269
109.122286761374
109.325841901129
109.61410943226
109.478894919319
109.355490633209
109.404066682936
109.456325544127
109.56953735928
109.360843014083
109.078081072217
109.004558047308
109.07122440131
109.310698521419
109.448480960215
109.456972981752
109.50984578184
109.479896293662
109.200721527466
109.117714905978
109.115904399464
109.076181499167
109.069517806089
109.169490366182
109.234927304551
109.037163216431
108.88360690893
109.055638563387
109.006022013527
108.970038266805
109.031977602415
109.17094541279
109.105023009001
109.182218034023
109.062444686496
108.908268946318
108.789693846034
108.881604176136
109.042441462138
108.999358463245
108.845822724821
108.802547389297
108.759074618404
108.737250055022
108.807789224779
108.797428250441
108.853330705657
108.919404223373
108.823808367619
108.930361225444
108.872167698135
108.811721786299
108.72751482564
108.848520997126
108.838313385678
108.718395653035
108.683626075547
108.694349204164
108.705629918336
108.692738143684
108.741851595526
108.84421468866
108.747741084549
108.660006087025
108.592936996675
108.485137494729
108.422985506048
108.432057118733
108.448444218834
108.60479789991
108.71166217883
108.877103695488
108.679538753134
108.542787560194
108.661486831518
108.601046019638
108.539096426246
108.534748602095
108.499725674803
108.556552358989
108.579893577747
108.699028311715
108.627722003209
108.520009247743
108.507726818332
108.680436144018
108.675936510838
108.628104377464
108.591450382139
108.666831236134
108.626612006198
108.638170855646
108.710458706333
108.634519057977
108.513287306693
108.541370852705
108.638203330984
108.600601491447
108.49203845532
108.582326825817
108.664143566107
108.675392925206
108.605297224017
108.654002345087
108.720764274669
108.773857245273
108.783398810191
108.611834417398
108.512609682715
108.586210389681
108.603551902913
108.592980269832
108.632764688094
108.797537956252
108.795567393849
108.721694163416
108.638990456138
108.493397808025
108.417694496856
108.480961652643
108.500689449286
108.543933388374
108.620899441787
108.741184557886
108.730054526686
108.660462796421
108.684359995064
108.668586675297
108.64108061838
108.717971533963
108.776408003894
108.767408453183
108.662783578253
108.649856252704
108.594460874573
108.528836265163
108.517233797963
108.655549134996
108.712537526557
108.687945802746
108.783811786832
108.738129841764
108.603786199846
108.595207451102
108.650065749868
108.688334984136
108.572085173064
108.55810595108
108.536037920279
108.549347886508
108.529061052905
108.444023773514
108.473380236925
108.62835657316
108.568838938756
108.575779830606
108.615910630701
108.625061660439
108.49800778393
108.365489983888
108.286642080057
108.313317209601
108.134099894104
108.119337028565
108.263285420711
108.38044900897
108.334434309677
108.295581377089
108.317543143731
108.389118246031
108.340536209152
108.329210929557
108.366474496743
108.306582951241
108.159416341526
108.174193112326
108.217598052365
108.199427592608
108.096580640532
108.060140778389
108.205505514258
108.227502564407
108.125894306529
108.131192677764
108.14481424601
108.124343599122
108.042116919374
108.048227489409
108.065556963246
108.041280093401
107.974837433128
107.932439945339
108.065478674605
108.232084894927
108.185003492356
108.291720759149
108.406758723832
108.377606540687
108.266877500498
108.270377765578
108.200374058735
108.228288900525
108.255859501075
108.189867282487
108.095618626362
108.017024602539
108.00598679644
108.021785635525
107.891220955056
107.791795163966
107.78430620734
107.864357025199
107.855531872737
107.664858243944
107.53782768247
107.530919819672
107.459164199499
107.417679445154
107.331190504482
107.294167017828
107.256499530745
107.120902551435
107.056290296777
107.020705554138
106.838911243726
106.742584634011
106.625237396643
106.502264745023
106.310172813942
106.07137622191
105.899820632651
105.717354299669
105.473637179264
105.184348026475
104.888191151964
104.600871988494
104.147480335599
103.788613876584
103.491598956152
103.213134294242
102.992252491011
102.771360988409
102.488950586452
102.384360642566
102.415391245062
102.285008164056
102.049181084019
101.902806108228
101.685544519317
101.423389333106
101.093663399654
100.669920317467
100.225609759508
99.7064374018591
99.203304897534
98.7824689788777
98.2923414905387
98.0257846788354
97.8357496247076
97.7440577847818
97.9599830199062
98.3944931458426
98.8872289840978
99.4549141646898
99.941764726434
100.491547367064
100.969254558538
101.311420550185
101.671032357211
101.989144742368
102.165072769938
102.299153957078
102.379638460823
102.619751461825
102.833468023798
102.91720768874
102.964258227515
103.115949946501
103.294071633318
103.521962855051
103.67448121432
103.826683651006
103.943719357285
104.056653343917
104.065572137763
104.014308143967
103.965122768965
103.881985478381
103.736083420005
103.588109264147
103.356421594549
103.087872442052
102.65033738189
102.02011451485
101.395861892318
101.004482001883
100.795407006761
100.882060814982
101.291405302795
101.946533925846
102.645001249146
103.355246289416
103.901182939415
104.383403478336
104.868786098427
105.228067921023
105.40741218801
105.634877421907
105.830695910277
105.964737844471
106.098731884789
106.191323941816
106.24385236555
106.337549447686
106.380047133255
106.389428506684
106.404277531207
106.453396357964
106.488362538215
106.58684413734
106.637651858113
106.647992570919
106.572934357221
106.529171777497
106.615558211019
106.741274189058
106.72217763541
106.728635558429
106.747507967527
106.758569060137
106.770485107377
106.805400338596
106.777782893247
106.807161256716
106.795492319166
106.766826046085
106.787432814654
106.874064732289
106.868416883888
106.861830651174
106.837005182901
106.776955564895
106.785882454663
106.864562473209
106.890354300221
106.884091981241
106.809310506277
106.847854002379
106.952934366758
106.954745027309
106.890955266667
106.881300157379
106.868926285091
106.905507215712
106.914849313684
106.909174074493
106.879753480615
106.873891230043
106.834714795476
106.848785456943
106.876842238271
106.846287199183
106.773175511867
106.777434115461
106.818219563386
106.874239537212
106.882217555926
106.890828520821
106.931015623567
106.963821245415
106.961131174313
106.958394416854
106.932259862443
106.926780641113
106.899210726588
106.908326456585
106.918917929301
106.930880876403
106.914145873836
106.916237847067
106.895985186157
106.905229725291
106.89873290375
106.900433751277
106.865783909006
106.811677147072
106.818971187025
106.878097314099
106.791570886183
106.753503599902
106.830385384644
106.877739173773
106.825116365391
106.740617087519
106.712600943807
106.742746981453
106.727386564596
106.732140938298
106.738224047609
106.723285616442
106.654443241893
106.653641012263
106.657444123319
106.664385791468
106.692268287096
106.785945145873
106.743718334051
106.666879211737
106.685627983047
106.799143145525
106.799564884266
106.745055339833
106.692450459017
106.705212970617
106.696130078494
106.727750863916
106.747628871483
106.770543902985
106.790078529489
106.821610917073
106.82405942332
106.830214042508
106.826231365025
106.896742602901
106.886308619975
106.836271111507
106.806399470497
106.889613348081
106.834106895359
106.765334760076
106.858515393726
106.962875115922
106.937092901833
106.93441225096
106.976226375338
107.074487633216
107.044200846755
107.071073145435
107.104018888556
106.951192057557
106.880423574403
107.003305127913
106.991295699958
106.997997291042
106.925280101717
106.869766541447
106.888214304173
106.906913051554
106.907781779752
107.030489812462
107.054810533021
107.083565358171
107.120285360539
107.165062886142
107.130968615308
106.990645931087
106.893924593594
107.010768456904
106.985686095522
106.993933298191
107.034137681477
107.046718153933
106.938826155558
106.826790744956
106.798157423562
106.913944194861
106.94705714482
106.971143557309
106.916699998021
106.845490682295
106.845582256868
106.916955905503
106.949363742552
106.982367319918
106.845970790616
106.810155716822
106.845532074378
106.936726532224
106.980970955073
106.925768260412
106.811424905209
106.844337473678
106.945819306598
106.946698731726
106.715736302137
106.754760594764
106.884547652077
106.864071916841
106.806622437159
106.859287926804
106.81886647762
106.731144194768
106.681795388957
106.824252842308
106.79383778404
106.678672964186
106.712148942198
106.812905894787
106.822586168056
106.881695051696
106.79681983677
106.704656007803
106.720681168666
106.779029820688
106.713266362966
106.771349289871
106.854897822537
106.79941427141
106.608360931873
106.543696923594
106.523158612183
106.551586990718
106.539218690717
106.522136166114
106.453739726979
106.50028518194
106.507538246463
106.548741376656
106.597034937429
106.63602283802
106.570825355445
106.493988714798
106.38369905727
106.475874919629
106.500277694878
106.350904639351
106.263529148044
106.384548922201
106.459633726709
106.429627338049
106.330298902735
106.291575172145
106.229133306637
106.171301536088
106.131383383217
106.2180538858
106.275821000339
106.265391185063
106.216232144022
106.169001822104
106.100312375747
106.115586457118
106.057991524135
106.061963954669
106.107313445182
106.001937513913
105.805096880246
105.788293470757
105.805224089277
105.850404217478
105.723078440469
105.470725983999
105.392354127802
105.348573323126
105.180140111669
105.681746922971
106.061736179701
105.866478204811
106.042788026049
106.037079219674
105.902059591127
105.822105943312
105.84444748312
105.825594071776
105.733600796382
105.570937723638
105.528642586909
105.574439843634
105.671357790014
105.807790073278
105.844782662467
106.018913434651
105.927713103502
105.522301094068
105.480237254859
105.815662690641
105.651053256531
105.536358753713
105.628877324872
105.355414016395
105.266905223717
105.389200916375
105.374485992697
105.369775000899
105.434414278342
105.468602910869
105.413836380448
105.492685636222
105.585704489061
105.703238135933
105.778156633747
105.851533470691
105.813192820652
105.83506516417
105.828513666591
105.852740162289
105.847693485316
105.838693588277
105.808632420633
105.89011777795
106.032853201593
106.162445405819
106.102850321923
106.085705806666
105.993834976918
106.212393109417
106.4762879111
106.438928399529
106.388346722906
106.493815829308
106.430053862944
106.473477424377
106.534333271337
106.605676407605
106.645930346365
106.855727304595
106.912036212688
107.006068366809
106.976827072752
106.964631162558
107.048872133694
107.110784655549
107.183090648614
107.290519191735
107.073503085176
107.260619420055
107.504932806751
107.591693215086
107.451873380483
107.377169179162
107.33559851166
107.357035659769
107.202369708666
107.257624939397
107.370103476486
107.805819844693
107.82338224202
107.385899986241
107.194318095821
107.481569902529
107.574547559024
107.914837995903
108.06074966593
108.005336987472
107.903847854662
108.131897277572
108.426664646415
108.565036980797
108.26363116303
108.159087897342
108.058381991611
108.413407035657
108.610939011131
108.981413630405
109.252413785079
109.283079401835
108.984221478746
108.697373850863
108.517764477161
108.641099428015
108.597448644831
109.103685477062
109.492748573813
109.872313546746
109.897456060674
109.866955908102
109.733871366703
110.167885375182
111.198885456134
111.544594540249
109.961853415427
108.829781485681
108.528266073171
108.435911905961
108.305369206903
108.262922564343
107.569076775699
107.289668445899
107.313826638289
107.546087249627
107.486528476679
107.377309625462
107.213064097081
106.794598704348
106.387168770603
106.49789445453
106.42893751564
106.249411920751
106.118578000883
106.14433361986
106.136304122591
106.228893875841
106.013032496771
105.82143164652
105.66577124025
105.756843738583
105.981867765507
106.105578122063
106.050609301798
106.084680908802
105.826158098093
105.902492603344
106.238408965167
106.25021350917
105.89678827355
105.966617243823
105.961242312138
105.90253425258
105.827613479289
105.907391970608
106.006294050261
106.052793494711
105.884504031684
105.945085227244
106.081500840629
106.359144484124
106.264039621119
106.268911469607
106.299276404819
106.380776791563
106.360305965845
106.431996811376
106.331883700097
106.582474038461
106.805798140276
106.718580172944
106.537825232882
107.054441209377
107.844207255889
108.298747148404
107.839449415922
107.727463871049
107.603349423559
107.563198104899
107.827559704144
108.437413218945
108.491024341729
109.055733488934
108.848826430517
108.138883187658
108.208583254279
108.71092258511
108.462493585874
107.892821290652
107.608272055013
107.710837903362
107.183347575189
107.180558702088
107.410595966943
107.788117003404
107.582345293791
107.399057916511
106.940880926806
106.894683824467
107.240554369674
107.301777402522
106.869814109386
106.67596834462
106.389535826532
106.742954548335
107.04490914822
106.94736913084
106.706009451948
107.093330333002
107.251835580781
107.844128846545
107.925218299642
107.465925938003
106.941531748583
106.999519100883
106.88475789448
107.322814986373
107.223842482424
106.664805310805
106.085589271181
106.053685899615
105.971589254942
106.039657716935
105.628001080471
105.405245124939
105.421991102106
105.464433353738
105.387394325808
105.561816625234
104.909289491906
104.775919719112
104.799986835786
104.923257112486
104.868861488106
104.959886439823
104.896147371287
104.775433499054
104.606006746859
104.615800119508
104.486760583298
104.597141108804
104.624337376615
104.151480264836
104.265603191279
104.581347367103
104.58935515744
104.417489249617
104.233026231966
104.399042805006
104.498004977247
104.595598272553
104.495099596472
104.530359455617
104.409984591158
104.377947354792
104.210642964425
104.234536780777
104.00637972174
104.056236541938
104.085008560572
104.079593762371
104.123345083062
104.227713676505
104.2321273668
104.224560123893
104.08467051897
104.037579892738
104.106344606417
103.852407148988
103.594180827795
103.736434841263
103.72092351507
103.895478945717
103.892319104487
103.971436514417
103.778739404501
103.833136597092
103.804111877796
103.866819755843
103.592985422915
103.692188446457
103.418337251441
103.061242159081
103.404108103793
103.47541444291
103.407665641731
103.363899545473
103.294529388004
103.362501981138
103.028212551107
102.99870532561
102.959031911721
102.703519299344
102.961282996127
102.963686336845
103.063650657444
103.010758181228
103.047301434261
103.085116321512
102.907805752354
102.757557053064
102.844467801937
102.91512318479
102.914658101863
102.694572837774
102.512476896855
102.606470415612
102.604486376721
102.638538220511
102.376268442949
102.103580146491
102.362501718685
102.517899350354
102.462645711039
102.345686144826
102.454288491779
102.116498154553
102.304069720183
102.096959087295
102.235964146906
101.648702774333
101.779910324367
101.706097863335
101.664685739852
101.941824038226
101.797900807135
101.493279663377
101.557410125673
101.182144507089
100.947017256663
100.839067598239
100.142763269862
99.6239501896212
98.9133528004625
98.3739797777607
97.6975683289342
96.6939164499777
95.5890348568809
93.9124930438698
92.4384400117369
90.3138271761758
88.6223437837436
86.9585947693298
84.867026928813
83.5394908083789
81.9295821071987
80.4115410111677
78.8447278682787
77.3912002594548
75.6259983454125
74.9121158319702
74.1022945662205
73.5065941928849
72.8269159555849
72.5272958785959
72.4446139703639
72.5779828004408
73.944989274755
74.5976551000536
74.8671918424185
78.7073902986602
79.0476120999919
81.699028659083
83.7580086223679
84.4918651382092
85.123188211567
86.1994718330605
85.5165656283386
86.3580268775822
88.5878159651518
89.1901768500146
89.7545516987892
89.1903746928438
90.093933989006
90.9974243065158
90.8547893839885
91.392304010201
92.7407809593374
93.1094024317781
92.881422811065
93.6837828642547
94.3152257394696
94.693482248525
94.2957675030995
92.7930383785528
94.3701267109973
95.940609680614
95.3161637926836
95.028127507402
95.9212197059862
96.5660232890606
96.5550132526518
96.5303734928968
95.8690999445046
95.8841199186551
96.9173815685094
97.3785213923413
97.3428683978627
97.1897526671177
97.3986171646045
97.112730228307
97.4596215086108
97.7561636398833
97.4242594039416
97.0700902221689
97.4120183547712
97.383924292343
97.602160960203
97.5596176559733
97.8178467680102
98.0112475258356
98.2210154912322
98.3696353502775
98.5826702295762
98.7237757757036
98.7620807648872
98.7814562096852
98.8626359160957
98.8679717906191
98.8946529077687
98.8378267238579
98.6622986668951
98.2681814393319
97.5716020467641
96.777241346217
95.5483946683083
95.6639787310903
96.6327667934495
97.0511654637891
97.1839037067238
97.9704106615998
98.1302907931794
98.5710901967376
98.74111407642
98.0331257665824
97.6100450350978
98.3046946214107
98.2645431075181
99.1562668780183
98.8315562897522
98.9035764093406
99.1198971632584
98.8878176407789
98.8281202059113
98.3307563409731
97.9098847678356
98.7065038793871
99.2528474272071
98.881625897418
99.1097272037108
99.0879248808363
99.2961513292112
98.911387359099
98.9495630945118
98.7423120213625
98.5094371931484
98.858837166741
98.4432369601917
99.0136805741813
99.1541748395296
99.1983774744463
98.8738659580905
97.601375229422
96.4363321803092
95.9473495649127
96.0866345314071
96.9494371690467
97.745823911137
98.4049053033139
99.3507723424418
99.9466790262989
99.8625031621971
99.7802779476167
99.390869443464
99.6131765288487
99.8633731019284
99.7567914417832
99.6564939559143
99.2828747804234
98.8170806871083
98.2276539342329
97.3759532511972
97.4140602261307
97.1088721057314
96.8770719245018
96.1381920896212
95.9012675998933
95.4634206681253
94.9545281187305
93.8549410161223
93.609931427879
93.3016552518581
93.0640786855587
92.9471305633077
92.6165069124917
93.0519614885424
93.7190734980749
94.3368662869558
94.8488576231248
95.1466162313215
94.9195783526348
95.5485631751273
96.190022149277
96.8535405499985
97.268165923308
97.8000804471151
98.1797734980009
98.2835192536679
98.3786129826721
97.8728478177339
97.5270598216027
96.9674876057687
96.2207963377217
94.9581158574491
92.5212787859541
89.7692526334439
87.7262615619153
87.2899036637526
88.5157886088663
90.4061103976754
91.5650664693238
92.6681758879221
93.2553096217435
93.7876754631624
94.3058434452085
94.6598816448238
94.7419514712757
94.801172772229
95.0664656032349
95.2406944003552
95.410749195236
95.1424800695331
94.826986745398
94.2636179006132
93.8167307255489
93.5344729132298
93.40512518637
93.4671832459811
93.9064749704271
94.5331089359022
95.2121051543947
96.0291923702072
96.8476381026568
97.4159242504218
97.6340080082357
97.7611791805433
97.8343306986036
97.8152905683476
97.7446630364141
97.5527259743178
97.2853794740226
96.8942147365285
96.3229583857871
95.8696758974055
95.8751604170721
96.3415399580961
96.8538575461143
97.2686730984397
97.46130345484
97.4756578964793
97.2987598774423
96.9724607807819
96.5400408328608
96.0362285077093
95.5620061244345
95.1730916320546
94.806876533508
94.4967408043684
94.1861276674189
93.7991293695843
93.3126726152048
92.7535798851059
92.1890368986521
91.6069415530909
90.9173148317448
89.9771420008752
88.813395138956
87.5747571625866
86.399136260677
85.3728865825672
84.4823805150065
83.6540505025831
82.8187779394271
81.9781663311608
81.0883489724065
80.1756280279129
79.2578297619096
78.3861526372276
77.5133926252833
76.677533641466
75.8358082224973
74.9607535671298
74.0453190622014
73.1202849740791
72.2346932146965
71.4672009801069
70.9150915035424
70.6179529864585
70.4796421918328
70.3696269349924
70.1503910926722
69.7663081151858
69.2441291013134
68.6486051985514
68.0477733591915
67.4427198222938
66.868164700489
66.4255081183664
66.1643433993261
66.1198239538035
66.3158913526456
66.7640747093907
67.4555062238779
68.3751665942163
69.4851617416911
70.7022194872206
71.8875078867912
73.0170966743771
74.1696475749767
75.3789025362618
76.5989349344518
77.8000922731117
78.9642745377975
80.0717595593467
81.0985448121271
82.0640340537767
82.9912576484621
83.8797533571163
84.7254420900384
85.5490214367448
86.3348357292315
87.0986434075187
87.8534328517696
88.5816626354194
89.2504084810567
89.8410303478878
90.2927543607711
90.5297582037874
90.5162253969738
90.2636541447566
89.8489525233338
89.4240477148405
89.1481353504426
89.198348217516
89.689086393542
90.5081184131413
91.3827082299004
92.0882310408193
92.5542535083299
92.8313999706487
92.9458563083223
92.8928806442375
92.6865932538214
92.3431294698987
91.9357877050529
91.4886837944516
90.9556699615597
90.2982338149662
89.5092892930603
88.6392095489357
87.7375772623845
86.8383096115895
85.9615309841638
85.0768857037925
84.1732170548565
83.2242245441156
82.1484299168335
80.9031290249129
79.4816271016134
77.9584953262785
76.4743029794432
75.1524925010831
74.0927730494057
73.4560578154661
73.381144157898
73.7971917140788
74.3282464991329
74.4381665277963
73.8045288095665
72.5992019830051
71.1732162915251
69.78073820554
68.551119458582
67.5224302447532
66.7232448382914
66.1794561924761
65.8665121151239
65.732472882588
65.7131775850538
65.7617616238547
65.8531977217068
66.0037106751291
66.2995023529065
66.8430286887835
67.6820220391351
68.7583280196884
69.9352440012622
71.1211808871199
72.2848715768331
73.4153748587408
74.4760185511481
75.4837352263078
76.4282031773316
77.3107270724237
78.0732659968202
78.6704030711268
79.1022760118452
79.3393058995367
79.3562305518688
79.1956388121003
78.9319495344398
78.6555448579003
78.4627612514107
78.4559333033727
78.6440252265997
78.969951760265
79.3971271425364
79.8698540621482
80.3309684578669
80.8161107848974
81.3490303905308
81.8085047708483
81.8516782002941
80.7845406958458
78.0170698033566
74.015160914959
70.3754333181433
68.7396797843247
69.5800840142844
71.8425295554027
74.2095358901791
76.2046347660718
77.8107084144948
79.1152271159889
80.2030128497684
81.1003722271498
81.8692446942945
82.5262038201209
83.0486099072408
83.4543818971633
83.7172596757515
83.8697435894373
83.9738509537816
84.0719861455775
84.157288451041
84.1937479378288
84.1550036195251
83.9986548977228
83.7215040802962
83.3934750061441
83.0827280581727
82.8232119282547
82.7003683906905
82.6995652036508
82.7429678787328
82.7630219727465
82.6549673934162
82.3755281831648
82.0651798839089
81.9798069941747
82.1401888741707
82.3978849096623
82.6969731340193
83.0417399266813
83.491768154214
84.0553922141104
84.6591780013806
85.2410282228769
85.7678656805329
86.243694927679
86.6469741721885
86.9264119853475
87.1626059488699
87.4487947423303
87.7112977684505
87.9312600981785
88.1851830963526
88.4746812718606
88.732383436857
88.9842733091023
89.2280267607322
89.3694489522637
89.4529888195275
89.492486628739
89.3745281002519
89.0712725937015
88.610685873552
88.0168358884912
87.4646188146663
87.0857432462093
86.8978120185467
86.8856495786976
86.9047825679691
86.8732601680527
86.8783051928239
86.8972788982177
86.8543507393929
86.6688351563552
86.1798578418716
85.2470829955046
83.8314332937525
82.0526492298991
80.1857137768509
78.6481866069785
78.0048991756834
78.4629625870854
79.6973465363425
81.1933528364352
82.5783163240017
83.7143866464497
84.5491877400113
85.1296396005735
85.4947959162716
85.6485161015493
85.7202942653412
85.7737999107685
85.7860385514035
85.7535140553321
85.7079817053259
85.6950395137639
85.7262772292979
85.8659912684021
86.1138136527266
86.3372805394892
86.5989962387038
86.8987529544235
87.1466485535852
87.4066669134281
87.6503590352592
87.7839450680485
87.8143105051974
87.8736275204571
87.9950088067302
88.0215374598045
87.9896352470578
87.9357110364613
87.9000093445515
87.9158290532657
87.8934093311951
87.8772562445587
87.8978026466768
88.0008666919667
88.3188844655702
88.5314742856587
87.9724406587531
86.6780192074502
85.6496357644009
85.6946503358605
86.6516718847812
87.8320879974892
88.9343746495683
89.9558243460744
90.7681839759948
91.318926865
91.7106897645199
92.04239099895
92.3309721741243
92.6188253091848
92.9893033177487
93.4073367124603
93.831982912323
94.2728254279355
94.6162000167347
94.9160179008403
95.2537383223371
95.5245571511946
95.7586351799597
95.905591388399
95.9537529658389
95.9345957703586
95.9436513722175
95.7488884117444
95.118657129942
94.0298075390124
92.1395406070755
89.0848057636638
84.9751606434533
80.2919692598954
75.7978647219718
71.7673356024087
67.7735876752295
63.7737211451553
60.2067939378985
57.7183497676336
57.142149782557
58.227150742703
60.2910707372458
63.0439722538512
65.9739066404081
68.3423823344779
70.0335113421155
71.1832042655865
71.9859512545296
72.7760508826685
73.7960431201008
74.9812542369979
76.0549487635711
77.0593164456532
78.397686170454
79.6626202646349
80.3715066678762
80.7905162462958
81.3215233272402
81.6930400178487
81.9285220605323
82.0771956953262
82.1160840257544
82.0885932510552
82.343051512892
83.068999534465
83.8916553436059
84.2264809036398
84.032987887863
84.232562004889
85.4097526704281
85.7437559810592
85.3155119034009
85.4589562354701
85.7778264335697
86.0334242586719
86.0559731629588
86.2341024100588
86.2953681189197
86.2305660348254
