1798
3999.43349933624
650.420452594757
1
128
4
119.48498719904
119.420197655277
119.48463160911
119.57132155563
119.541150450965
119.527249320322
119.342260857631
119.365916534666
119.556979931044
119.667116863016
119.50600668002
119.355995237023
119.378324540368
119.427795713546
119.388774474857
119.303033593347
119.436465509268
119.595133036718
119.480168271034
119.460068719555
119.484309885796
119.190506596555
119.037590873711
119.099608845537
119.16440491699
119.192670458063
119.109662626453
118.932118586688
118.950504982417
118.913518158488
119.177778643852
119.237873124973
119.063372495925
119.186432780338
119.114745505792
118.888007879692
118.609525738701
118.66315348977
118.912856311231
118.629053618905
118.708109806439
118.490621998382
119.048432317926
118.981696235377
118.682150348042
118.492821081795
118.69300259138
118.875356059897
118.597208269403
118.829808135643
118.460441599945
117.769661244743
117.812195173407
118.214345586051
118.222463262395
118.130200117875
118.706021744372
118.329933757296
118.214588285229
118.345213491691
118.315553605322
118.302841759395
117.614040750926
117.861906132891
117.960534823715
118.310669623177
117.960745874732
118.659726756347
117.475576997419
117.703009084045
117.842153300827
117.711686283761
118.612750312059
118.022015722888
117.918919663995
117.279059927076
118.444134949655
118.862892764036
119.119666470971
117.264419237704
117.458324167616
118.059370729841
118.288154925181
118.064718763548
118.0747091219
117.612326898278
118.088000747133
117.906119384031
118.208165133469
117.937609122281
118.42069478579
117.892882950537
117.496134017224
117.901571223549
117.955375558765
117.624469452903
117.977397301657
117.472669977757
118.914227891515
117.681161339033
117.592786798587
118.32954580021
117.871854373848
117.823578407836
117.825942147885
117.698451146896
118.274937576643
117.203225782555
117.904182786343
118.04289722142
117.720878081819
117.959449690584
118.035556819701
117.884966353834
117.616138185376
117.979656698217
118.096507254379
117.996886596098
118.225384562432
117.631134590637
117.928712761645
117.945621514007
117.827793658945
118.157366674492
117.457075190723
117.652361238034
117.901651435488
117.682941351301
118.155512607689
117.234408156989
117.525099217216
117.242046134918
118.444336148416
116.440653111328
117.159668703447
116.953889926613
118.653171059094
117.711211529214
116.468396204025
117.290743033278
116.495531883403
117.13159372181
116.296720443642
116.994475506159
117.077004473562
117.138369680414
117.575202180271
117.128636804804
117.306441651213
117.462684063178
117.229320962154
117.335265145466
117.328495873856
117.762217942616
117.458696611161
117.032346383076
116.946202557924
117.412427453219
117.617626025536
117.519524497719
117.583864911127
117.334192360307
117.681972533901
117.283086502304
116.956550402598
117.096822166407
116.875164761701
117.099630660707
116.683624036117
117.655199125745
116.844598089814
117.149884257824
116.306625855243
116.780160282829
116.736002513667
115.830765537055
117.370271442712
116.796662045507
116.564743379829
116.997697704515
117.118773533954
117.029245428679
116.823634341723
116.465758510029
116.885292815153
116.083498548598
116.374796987645
115.727615546262
115.298774102414
115.706346162565
115.937982640018
116.527032398942
116.333590692842
116.251164272452
116.525966997325
116.16424180874
116.389312096925
115.696103145648
116.820953448663
115.668616647174
115.317927526545
116.09008940378
116.094991261898
115.741660338395
115.428464498463
115.36759919249
115.814978728066
116.276242896552
116.021026781175
116.069884716711
115.726827508993
115.82865678829
116.013321597725
116.015132046462
115.858559595406
115.81249660329
115.710559275117
115.619810011537
115.910327602885
115.512730900818
115.471332399503
115.652926817211
115.613588089129
115.950796421255
116.188708930004
116.132232857497
115.945665511713
115.912586192664
115.888894765761
116.07296475728
115.855029294567
115.628160099959
115.233433053377
115.086863035699
115.580957391826
115.818244746921
115.391517585332
115.197973828749
115.214338511875
115.36257099533
115.462327652872
115.230271829972
115.16659013211
115.004230936098
115.189977132699
115.244028175003
115.41093628233
115.352034255466
115.353534822072
115.23798438519
115.427005168558
115.19290887838
114.942938905068
115.036138585592
114.975059999825
114.970982376392
114.941649909178
115.038862050289
115.225178191886
115.23906737914
115.12640254444
114.812031971581
115.046068330817
115.097393402446
114.949624701947
114.803048044832
114.668609738834
114.939013790063
115.089365056527
114.978129906582
115.094814182453
115.012941390949
115.083630393044
115.060846209375
115.098110393978
115.08338197924
115.080078347703
114.998338435569
114.889740554721
114.87085281966
114.883697219257
114.784250386091
114.636034852552
114.632530267631
114.81290276099
114.886269370475
114.797088249252
114.752895875993
114.649374014133
114.586736608274
114.794496054788
114.569625360331
114.244203429996
114.137359763065
114.090212205693
113.992039815924
114.197483038095
113.719934353415
113.628066547433
113.664910636269
113.462540873221
113.583019253945
113.843319831286
113.641016945063
113.616627479515
113.584608417074
113.531968888625
113.444839875985
113.374841489835
113.441401142345
113.529525834177
113.238426521575
113.210004712491
113.202077028457
113.321046384007
113.490665182329
113.568377965478
113.67162601509
113.6672146178
113.429144852771
113.268511904913
113.427673991907
113.816819932191
113.712346781516
113.493387880434
113.450256652027
113.571447382924
113.686385397014
113.479338353757
113.237651046247
113.17774403101
113.205209828689
113.45643161404
113.642260264456
113.551966206887
113.584954809339
113.59853802004
113.329447260373
113.289147341756
113.338502714719
113.407368661968
113.342528562727
113.353999405506
113.335625174024
113.274039052734
113.211077231784
113.197356922952
113.08429196777
113.20970442358
113.410081978198
113.359806085607
113.072424635821
113.146745166019
113.135952076996
113.075067579603
112.834592324038
112.699237349749
112.803324021848
112.932091627078
112.895135129242
112.933384833035
112.985470290478
112.896545891162
112.838615472734
112.940283619378
112.997399261442
112.954431244356
112.763959870522
112.800852336509
112.821471711242
112.83061094484
112.694837693768
112.878738802733
113.067574127346
112.967187581226
112.789269795193
112.799901704561
112.802696915107
112.666097984462
112.594708506984
112.697826414286
112.625738907339
112.635218892678
112.561064844144
112.479200800155
112.580022287325
112.589769099241
112.481364573331
112.548339385707
112.590228785969
112.713820603782
112.646337293238
112.496611659668
112.518421160729
112.571335106944
112.508533302763
112.479500460586
112.5582197644
112.668681300591
112.647695558016
112.545186837927
112.376979634216
112.525339059532
112.592478722367
112.679354716907
112.636001697047
112.589625156831
112.576024368392
112.783343176207
112.759784724608
112.633332732446
112.65695828945
112.589944273024
112.455683868498
112.485030410295
112.598753011114
112.64719352635
112.511332501069
112.479182341943
112.51701789046
112.583446738815
112.553032119804
112.558161549871
112.629217109795
112.739171682859
112.768454716005
112.626246878688
112.426412711257
112.403623707691
112.487308515016
112.582604297439
112.567019215253
112.687724340068
112.705955229455
112.662678867622
112.566553746321
112.488780060919
112.398214900547
112.500859462664
112.553882272973
112.571177589174
112.605470287971
112.686991111319
112.653925082887
112.556758036006
112.474551334639
112.494408225453
112.545987548058
112.604375712612
112.589378445173
112.592657237968
112.590677147875
112.554668032151
112.417792863346
112.455988252978
112.4534812343
112.460730685129
112.559369606564
112.652834129565
112.689642254049
112.542463050766
112.376814330886
112.317400544947
112.397492591706
112.520262751812
112.415252143928
112.379871961701
112.344113209399
112.237686954382
112.169319948947
112.235225310178
112.257430052996
112.348753937716
112.324615507941
112.325297804104
112.293764744385
112.208490943944
112.025290479311
111.993394984583
111.887162975114
111.825291692521
111.662481771226
111.749869224292
111.888579305578
111.930392806369
111.853370630763
111.873433267187
111.820941542078
111.775521077376
111.709683855724
111.713992309333
111.685942986154
111.641468895891
111.567590733779
111.518423819182
111.55107248786
111.649555539492
111.507665539652
111.386653450991
111.423896232924
111.387494531521
111.380003743043
111.439402531768
111.426885897227
111.437447411781
111.340360729704
111.309949774006
111.324357612985
111.331808444276
111.33376569651
111.365649396684
111.53109401747
111.70526367377
111.719085606453
111.863886175736
111.854327094987
111.79513961303
111.725296255702
111.731806713847
111.719300649946
111.797731392089
111.756642377802
111.643936090641
111.473110903409
111.368216651282
111.42677732198
111.458948216526
111.223270630102
111.143143235524
111.187059730704
111.188551654044
111.075554511591
110.848243219183
110.644878765088
110.581849230874
110.474714109881
110.352966852837
110.220185136022
110.172010787922
110.11265718192
109.953481808203
109.689233888988
109.49875457652
109.277905433934
109.093937225548
108.761894276869
108.531982451152
108.384397745554
108.117407676029
107.774254887645
107.365169234309
106.88258448298
106.415093480521
105.94509922728
105.50430525457
104.994918205488
104.606374875679
104.212094043976
103.760679654241
103.277963626918
102.978565064672
102.825970579661
102.63747448245
102.453576108055
102.285112965906
101.961288464213
101.692565079759
101.450262975229
101.129224377846
100.600132181263
100.104558234262
99.716052393834
99.268813301503
98.8181230126009
98.4922223300604
98.0868001102204
97.8288282590346
97.6850831354842
97.7334542545632
98.0698339466682
98.6062918442134
99.2007245200613
99.8886381128236
100.491207182017
101.076616684888
101.632472748115
102.078470732965
102.385221442303
102.681850084135
102.913515269126
103.101588115999
103.2033201655
103.4318309545
103.630968987199
103.784508308888
103.911068612902
104.151570190443
104.452689390612
104.740314567015
104.946916135939
105.220014855314
105.361695616029
105.459603912419
105.482739298634
105.418268755123
105.299400352501
105.156722689004
104.904736164648
104.657415667451
104.299508221909
103.900024068773
103.386319778942
102.759579467746
102.167529852104
101.880488672001
101.81018182896
102.00911273967
102.54714831702
103.395332614398
104.250877700028
105.134924676683
105.891253807216
106.582846764155
107.187104079167
107.633155347201
107.898994154411
108.186481823257
108.413197845607
108.598051825205
108.748102765592
108.85283657176
108.965312467223
109.106074492995
109.11349819279
109.108834378406
109.172220810507
109.248361001386
109.255277579101
109.354114921103
109.376995068448
109.406035318409
109.441590777439
109.442554981882
109.46869225833
109.60827075743
109.611801022469
109.559368825344
109.563147644923
109.683710618752
109.70039433122
109.717567007538
109.726653883585
109.752930874387
109.801826945458
109.846584248831
109.767841279688
109.771173522038
109.768211155606
109.788523141934
109.816255762488
109.791615074037
109.772851380149
109.849101977029
109.828887899583
109.788043268981
109.752284076816
109.801006554302
109.859327321766
109.877083773209
109.856234146817
109.834266006036
109.804619470546
109.902073455553
109.945506740582
109.9327008433
109.853571403858
109.845612598157
109.867822780525
109.903700275912
109.881158802643
109.825535086853
109.746904046088
109.755576354787
109.79415482849
109.841941365373
109.89997248402
109.9310708978
109.907060104293
109.91834267253
109.924301268223
109.937444067844
109.921273088618
109.90726405286
109.831823860055
109.846656440495
109.889090981128
109.915977447893
109.87619410304
109.844980557848
109.841250338013
109.898076307321
109.917935650328
109.927276605221
109.833031921415
109.749135531763
109.740265801464
109.781047444585
109.736579908863
109.728023211129
109.773406420572
109.806595993101
109.750609541539
109.683583164393
109.619235037491
109.639192915318
109.647106342971
109.639089128446
109.643702387077
109.656694163162
109.637951759522
109.679566773277
109.652097902393
109.670966611514
109.665180663378
109.733460800592
109.725204664882
109.683268046414
109.697576391923
109.729684898383
109.675528031347
109.693588168763
109.721170548484
109.788964485076
109.781177818402
109.731186603795
109.677568604218
109.690804209826
109.709028016853
109.745151717457
109.72170317848
109.764923835264
109.745463818203
109.751124932531
109.804714418731
109.846742859442
109.801326204523
109.841657663168
109.744777099606
109.705775541791
109.82025765902
109.94457861475
109.995847568309
110.093934822751
110.097028186649
110.089792708753
110.005615951588
110.018830976393
110.040757591129
109.998488758819
109.928814490666
109.926580655939
109.905720947128
109.953533569146
109.887103360457
109.938535869544
110.0113624178
109.958934885783
109.861832909649
109.983223420134
109.979486915387
109.896342224322
109.907816414205
109.97008956226
109.968326614662
109.94595789638
109.869143984883
109.97428630391
109.976129308297
109.931493789411
109.907756664777
109.929565499351
109.830053024419
109.789133893234
109.70552832819
109.781519195372
109.846436516143
109.893717646954
109.794922445489
109.716540607734
109.710675943737
109.78485439835
109.724715966909
109.676032341879
109.704780405214
109.818781564997
109.79926282969
109.799533475018
109.793876919982
109.765888176987
109.679521822917
109.71248652773
109.751790614254
109.734388058572
109.615442201981
109.705135489813
109.754508670472
109.678196589292
109.647922547854
109.653279966686
109.562267392825
109.550805345261
109.545868531013
109.684250949748
109.689784661257
109.668883573425
109.673936890136
109.690796168493
109.689861336134
109.753956301576
109.660435568482
109.577878065242
109.498147339123
109.524013581774
109.542722447638
109.59671397248
109.655203518448
109.590388440829
109.323591957491
109.329619163945
109.390885357023
109.366966733849
109.368095448099
109.410888267905
109.317329720474
109.33394149304
109.29970953464
109.354870058099
109.39414901464
109.415922510805
109.363282401077
109.239866493568
109.146720866404
109.238504686981
109.24506074548
109.247480384747
109.135901213076
109.057850265094
109.01783619876
109.002211103809
108.982969130533
109.020448149617
108.957890905286
108.918785288948
108.829222156306
108.792144296286
108.732675408918
108.769887208532
108.732615860243
108.665628810911
108.636176306596
108.610777855323
108.462266241654
108.545403055786
108.623702004228
108.476404621541
108.253146982925
108.242228455685
108.265374841874
108.292138011794
108.187276982362
107.841062621008
107.689075183963
107.685476280766
107.372519589929
107.929712246798
108.515578902925
108.109160068312
108.270354696469
108.407285873859
108.362014106224
108.31550618657
108.171950189216
108.189857121769
108.121592440335
107.880118608795
107.913519878174
108.101774704615
108.21470937093
108.230184611279
108.288966203984
108.554979511023
108.482888240743
107.935092798133
107.783389380109
108.279198306399
108.126649236684
107.764573743995
107.92601482888
107.718622541196
107.545636132679
107.634837264887
107.682346374761
107.81444885802
107.912757427527
107.86979253887
107.746858272788
107.944765045964
108.119272232093
108.1869482425
108.175148407619
108.201098919919
108.223613029398
108.398594562566
108.366158352929
108.286379110697
108.312510711071
108.444105009568
108.411242663991
108.384934909564
108.41827509491
108.604833742268
108.70777540353
108.77752454485
108.697703382015
108.829578624907
109.16691687424
109.227246754108
109.090475407425
109.315683935121
109.212328636574
109.115553365025
109.247249958257
109.384650731422
109.422281857452
109.546744040519
109.544378889002
109.775412478659
109.755840104662
109.858548165315
109.810196809559
109.785745093803
109.88019738953
110.048316625883
110.006545696295
110.123195813464
110.217551323499
110.437982923833
110.179048668774
110.026422800217
110.179042106266
110.432491736316
110.368762794923
110.521132823714
110.376934980966
110.62003364798
110.791740619071
110.607720033275
110.617606691831
111.066636643401
110.922695428287
110.799470041127
110.865592576791
111.02536027441
110.935274712955
111.347536954499
111.479441261697
111.424876291627
111.238049514123
111.334778396831
111.314295160347
111.522715984019
111.608920509071
111.902884462717
112.179773692945
112.352656583403
112.138942179503
112.235956711737
111.983359878024
111.784272187477
111.888332742683
112.585039640973
112.954152684981
113.206154664092
113.333505877339
113.724833314199
113.637380849284
114.180800201367
114.969748359519
114.944456711043
113.001082597623
112.240609886298
111.92304974858
111.618578935909
111.044653620161
111.09876290713
110.621079689356
110.187962336247
109.890181839576
109.881199171888
109.7620311321
109.743169757098
109.528732023491
109.212980045419
108.987763837601
109.008041133623
108.745401600643
108.678952600661
108.595571684462
108.544432214582
108.503405924264
108.465268937982
108.273289979312
108.354755939287
108.240284574825
108.132516625007
108.198628768268
108.432329415233
108.496477322606
108.655382855071
108.474000186424
108.367036114797
108.577815832804
108.505045792822
108.144999276952
108.239101578707
108.137354357312
108.205681108496
108.191796987868
108.278941605446
108.420427322449
108.550709704258
108.480045551366
108.539654650737
108.572612996194
108.927267433682
108.848724265745
108.725504574252
108.761023633141
108.962448168915
109.036738616773
109.117923337418
108.9685321869
109.195227821895
109.535343390758
109.66637337264
109.168207216896
109.617708439505
110.725524269703
111.372853185235
111.129819264953
111.199878377311
111.137555600237
111.03829673864
111.053046875966
111.722253720702
111.969195893237
112.121945723141
111.856075531508
111.41964453289
110.973700904297
111.007087429366
111.039500627175
111.061693942908
110.838643699935
110.801155742516
110.433211051853
110.671371733788
110.569243326825
110.509117614844
110.223453862039
110.175358707853
109.725663884005
109.707863008484
109.70814779235
109.419731944068
109.170615410195
109.293665326767
109.106756310037
109.318374121292
109.648311467809
109.873613947957
109.579458726904
109.930296058172
110.109545949973
110.853208241033
110.78446588116
110.231748918041
109.923419356872
110.087741080258
109.654280534215
109.516641665519
109.321266866822
109.028985459061
108.385467593926
108.581943170678
108.447275432268
108.080424948116
107.590825120446
107.449295027975
107.282222499976
107.316071371174
107.260214079138
107.186667937834
106.536463326951
106.625546872871
106.597040025964
106.690041223938
106.636615756043
106.866451216723
106.844855070839
106.795295041213
106.515399556169
106.532801131678
106.290100953993
106.352150389428
106.483238963928
105.978497250061
106.094052504592
106.309164049735
106.285486122094
106.269242528766
106.082505047981
106.206500588434
106.240969409744
106.257380499974
106.188203610968
106.32107314998
106.210849609466
106.113707731952
105.980358190006
106.148901610277
105.805636156136
105.743648888668
105.812120957339
105.876641574332
105.88530464196
105.875072539976
105.82632225879
105.922766823463
105.835287029493
105.800004469623
105.844875078416
105.417281465468
105.065964095646
105.265780138135
105.289284260373
105.498713696943
105.452571045839
105.546647975409
105.362113103993
105.365602932229
105.26446087033
105.446708035079
105.162410115044
105.216625486637
104.848154247584
104.344237085038
104.585608015592
104.754508893446
104.72276059538
104.615893370068
104.486696204429
104.627437189343
104.193983050355
104.140318132569
104.135206058094
103.827751553402
104.020585024862
103.998510708065
104.212837018456
104.135099042347
104.129062979704
104.168439345042
103.937685456787
103.75914651629
103.888939120196
103.917844495985
103.907714645751
103.604281621815
103.34804096312
103.522487581176
103.498748996289
103.549666043333
103.226998967939
102.806389788782
103.030916578356
103.247779977307
103.214712610671
103.09696132053
103.247767243232
102.855964498671
103.034529447716
102.762341013963
102.985046186147
102.261271952713
102.267988199629
101.988117566689
102.035899840479
102.336751760158
102.164261439334
101.754738382889
101.802648409763
101.325927516869
101.028539274504
100.789496334852
99.9141880011886
99.1025374977459
97.9453356317463
97.0953408301983
96.0726470320606
94.5353444865033
92.7511820564108
90.1319412904775
87.79103001422
84.9694922620474
82.182411121616
79.022315437916
76.353868770204
74.4225341090319
72.235137923736
70.1480852010943
67.9296039048316
66.118360321058
64.1778571288009
62.4862776567669
60.7709381542673
60.238136035099
59.9834084193252
60.1802809948636
60.5803311841857
61.213819145324
63.0527246293955
64.4740255459584
65.5072126840421
69.8902405899619
70.7896629685181
74.3561342182539
77.0815047933066
78.4636339332325
79.4413644000417
80.9147494548466
80.2030217935879
81.0277925223078
83.5908791423184
84.8402225338882
85.8371456105276
85.3383078873457
86.4171527371806
87.5687301709833
87.5561611424594
88.2058839767157
89.9961816075492
90.7194339353267
90.5147607055651
91.467000834741
92.3670043813525
93.0624379626527
92.657293428716
90.627871916725
92.0001663840572
94.3071529776913
93.986706931151
93.4826196489686
94.4467685683475
95.5070578765989
95.7077880217233
95.7171552723724
94.7902855532883
94.5566750347787
95.7136846837342
96.5689437615628
96.6527471959531
96.4805313092002
96.7192876542763
96.3869078167052
96.7486541813885
97.207184941846
96.9022678642297
96.2584105775458
96.3984640537449
96.4954430130476
96.9232143373124
96.8839035252483
97.2529994825379
97.59702431311
97.9241796584043
98.1104848005072
98.4528192143595
98.6866600145626
98.7620947336212
98.7593751321266
98.8655216390337
98.876488200223
98.9256793923049
98.8504200169738
98.5999645629994
97.9556654583983
96.8844626273085
95.7333755439488
94.1794244126076
94.1895727434345
95.5038875957696
96.4025778171572
96.670288338864
97.5521097892173
97.8673048953005
98.5521391876067
98.8442328799968
98.162236236302
97.4308226786584
97.7262823601542
98.0161868926963
99.358753313831
98.9473975428775
99.1169290349052
99.3839000394985
99.1643326034728
99.0152021817455
98.315931756101
97.6373117309198
98.4466551760816
99.2892102825393
99.0909563097798
99.2570777562176
99.0826065340888
99.4810887056754
99.0082373634604
98.942859218256
98.6467010022842
98.4668464973337
98.7177885827877
98.2100533395788
98.9219831873653
99.0962886173142
99.2834869102764
98.7931410593262
97.004048057024
95.0805273824783
93.8997313560975
94.3604839848043
95.8745277182963
97.1172887937202
98.0014256650842
99.1921586054909
100.039043899061
100.116028646737
100.020769192606
99.4403173317233
99.7504391735075
100.124938884073
100.023624770314
99.8169241332938
99.272308218503
98.6764979756127
97.7982415793184
96.6238812100024
96.4917808821825
96.1729366741131
96.0674706515028
95.1103974966752
94.5585675244654
93.880675111169
93.3071458026171
91.806635252161
91.0831621178758
90.424950341284
90.2618982211324
90.14919302247
89.7922391262603
90.2585300088531
91.1333112203786
92.0711161242196
92.8503683099126
93.3302560963408
93.1720219832162
93.9140826992692
94.8331028122044
95.9345071983538
96.5294112437887
97.1871172801619
97.6932408513209
97.905436124838
98.0040369347856
97.4139152474238
96.9091279124639
95.7974077044191
94.6000694417947
92.6316556777843
89.0418228262963
85.1386887355794
82.5151752327756
82.2073861299717
84.0045216554511
86.5889782031908
88.2559819964565
89.698852531656
90.5054210593136
91.3017160127316
91.9576716561068
92.5181465879499
92.7513796511135
92.8238862283343
93.0964276867388
93.4093941464839
93.686548289253
93.3270211272548
92.889640356386
92.109113850419
91.4289219361198
90.9432219135504
90.7966020610125
90.9223424106081
91.5755433850655
92.5091508395421
93.4709999751156
94.5879834517858
95.7785442339872
96.6182831118944
96.9525430143166
97.1150229956944
97.2242746683799
97.2152866951365
97.0988280486629
96.8252966630618
96.4488414755423
95.8719992865335
95.0621135380978
94.3817306669409
94.382751730165
95.0169754548943
95.7236289534986
96.3114689237408
96.566238319115
96.5421299033743
96.2565291228337
95.7763638153054
95.1798352852323
94.4790587174355
93.7588480743642
93.1602836699809
92.6424141740633
92.1807081902802
91.7360999142021
91.2096881371943
90.4993110413314
89.6786386334957
88.8903135450968
88.0585498945865
87.0492252704189
85.736835118359
84.1720024937044
82.5319330719341
81.0086485965219
79.6425553594365
78.4530548834395
77.36873167031
76.2869407732952
75.2134113469126
74.0794092615531
72.9208738563312
71.7589272915634
70.6265077792494
69.5373908779854
68.4875340421903
67.405651226819
66.3096269826046
65.1716640287345
64.01347873218
62.90044602021
61.9465595939337
61.2906190385958
60.9406544747368
60.7717220498124
60.6110280614972
60.3086738049829
59.8506393448955
59.2811547086655
58.6249026792256
57.9556943491614
57.3435019916352
56.8261524901811
56.4918455366518
56.3951230425778
56.5736132530231
57.0443759744107
57.8057647838037
58.848389627172
60.1729608485674
61.7270929516054
63.350049041637
64.8983449500279
66.3869752558981
67.9148764921604
69.5251671201931
71.1457505997867
72.6994713163656
74.1670715376735
75.5332081320981
76.7982706691797
77.9847799359849
79.1212856375833
80.2260659971853
81.2695229902515
82.2606529501572
83.2111280988525
84.1411688235836
85.0710864289538
85.96583705559
86.7747878510838
87.4672797027192
87.9634155310666
88.1501931328136
87.9998610627916
87.579378132421
86.9859604801267
86.3878886130839
86.0070220409207
86.0776749617847
86.7346145251927
87.8067033701036
88.9218965793297
89.8063623396623
90.4014844466946
90.750256081551
90.8622739997352
90.7307615963464
90.3983155993668
89.9212569264798
89.3439790398551
88.6718494775301
87.8838556370322
86.9507175329301
85.8418860323313
84.5958358237327
83.3443619965377
82.1515049521016
80.9872781798582
79.8153141537249
78.6246925922961
77.3617140493943
75.9660984080431
74.3928661015669
72.6290628853143
70.7648647210258
68.9474985003889
67.3584883628806
66.161569851344
65.4701522600845
65.3931187164558
65.8867362609008
66.4831819646561
66.5197752385721
65.7054157319081
64.2752112020383
62.6275433731484
61.0661353411975
59.7114359039819
58.6049597929201
57.805666696805
57.3260547110657
57.1035355809208
57.0668619885453
57.1698066226778
57.3737930642847
57.6534355408902
58.0127975228069
58.5660187589619
59.4549816653104
60.6917752305112
62.1637936436464
63.7047881985759
65.2227857394647
66.6801455560073
68.0693869421337
69.3636432535226
70.5729611366626
71.7098440869237
72.7395361393537
73.594490665587
74.2372449542339
74.6485055646633
74.788481744999
74.6791265231805
74.4002458791419
74.0171770380885
73.6411014072526
73.4214190709135
73.445847198566
73.6834292643418
74.0754074929457
74.5628191520524
75.119610648448
75.6794294968081
76.2135652613332
76.7536708836013
77.1507022903624
76.9425181880744
75.2964697980918
71.6783645727297
66.9077745546186
62.9670389545443
61.6346606504273
63.2124139659404
66.2986559404172
69.3186309090266
71.806058640221
73.8103150841205
75.4132153487693
76.7348641806182
77.8516432150426
78.7843658405533
79.5317381525283
80.1147200932615
80.5401433775311
80.815005967469
80.9675028307869
81.0318578462654
81.076827872
81.1195912726818
81.1000461629254
80.9819533456378
80.7389825657233
80.3603255804837
79.9050737180006
79.5142744419807
79.2497567801005
79.1148000578662
79.1129391309677
79.18824098578
79.2195650320091
79.074961256307
78.7210765152571
78.3561956986887
78.2908903905632
78.5599740181107
78.9469716551285
79.3620013119444
79.8199947473856
80.395053198097
81.1200151181414
81.9238564932769
82.6873865764031
83.3520888826353
83.9144882301521
84.3453182098534
84.6749758917754
84.9950789065948
85.3252488815219
85.6184247411755
85.8799438935494
86.1444488252137
86.4554451265814
86.7820696515456
87.0599751316977
87.2929669861085
87.4747048628286
87.5669475581914
87.5127455135559
87.3033240951867
86.9170004918076
86.3142874310397
85.5464993564057
84.8499186022422
84.3538216072034
84.0969349267813
84.0642420264416
84.0602749904633
84.0153610326338
84.0256201777216
84.0463578015881
83.9557580972465
83.63676583459
82.9682417963213
81.7661318642838
79.9736745698853
77.819807564681
75.6400636693374
73.8894029806814
73.2596940230128
73.9905399876711
75.6416014452775
77.5656650661152
79.3242564019618
80.7383322756218
81.7381456936265
82.4018873074426
82.8403939347311
83.0304127010682
83.0385990459998
83.0562465446572
83.1240723561978
83.1020993530811
83.0442190525165
83.048272208207
83.1129573349841
83.298278310697
83.6073812605079
83.9530618069672
84.316308547144
84.6679624471635
84.9218712341689
85.1191169663108
85.361038579621
85.569295391366
85.6240448862214
85.6587086464415
85.745047788495
85.7645868861068
85.7889775876958
85.7874368799107
85.7464485493185
85.7185818582997
85.6966773194066
85.6957832846096
85.7265170733492
85.8370071894808
86.1678322332866
86.4033375128947
85.700920733482
84.0893549662146
82.8835686193097
82.9883956683137
84.1618014897622
85.6504318776288
87.0405535679337
88.2564419417749
89.2151723837705
89.8942817843248
90.4012528094096
90.743837981032
90.9934499484289
91.3318462169873
91.8052065447633
92.3325538525633
92.8809631303944
93.4225687652665
93.8736310485839
94.1849004592361
94.435189558121
94.7816780552516
95.0905116843188
95.207329742265
95.2963617014273
95.3512882644307
95.2701180627365
94.8759388122267
94.163017585357
92.8045381964856
90.3133738318452
86.5197107723526
81.6029225705932
76.2620283706973
71.1912365061442
66.5319493026921
62.1925154912383
58.0479976291811
54.3672553679341
51.8713035163832
51.2675206338465
52.3273718189353
54.6294286430949
57.9149253823578
61.4789545716546
64.3632472762876
66.2541222693428
67.5340822025796
68.6073245779174
69.4784189104228
70.3967425187929
71.6603765780314
73.0766021442696
74.5014527560646
76.2086504074137
77.519361189092
78.0792799648406
78.6070074251795
79.2444043627768
79.7033792348975
80.2352911584894
80.2859931076457
80.1445181612037
80.3269969915404
80.6617376022505
81.1280091471581
81.8669454597387
82.3795671518751
82.5564551309332
82.8705448433859
83.8069533325436
84.1957507915337
83.562998794755
83.8086658034327
84.0938217357821
84.2001613628697
84.6713735929514
84.957404113128
84.4788296085789
84.6095360856956
