1798
3999.43349933624
650.420452594757
1
128
4
118.383987968501
118.264824517289
118.260408511184
118.401498321639
118.318937266137
118.272589629978
118.139481038203
118.207438154731
118.434235171785
118.561629190231
118.455930879505
118.299960748704
118.279818341278
118.357727722001
118.231056181543
118.001857755427
118.042317013504
118.2375784267
118.29933860646
118.258922370371
118.181394670183
118.049492181827
118.033812680204
118.117664043135
118.086045316882
117.9993505352
117.973919401746
117.850168842419
117.91240286784
117.899140274585
117.996940178706
117.94647528666
117.747452182079
117.85329820224
117.893920659521
117.784600922299
117.466807878882
117.466486820365
117.721094470664
117.455664578709
117.717805884887
117.516261819512
117.872737936854
117.712556178351
117.545535738994
117.574184005166
117.624554765572
117.562847092281
117.413750313535
117.716408167979
117.256328025341
116.745427757507
116.801508704295
116.93898084836
117.082309047819
117.14721589052
117.636383465078
117.155331322088
117.034433556973
117.31824611334
117.137760914331
117.297920678597
116.816117187231
116.768771074356
116.756673756789
117.18977952268
116.926981890518
117.638054717034
116.478087241663
116.546197571593
116.839003976284
116.730231735662
117.480658584659
116.740067920685
116.624414778568
116.208799880609
117.549413087608
117.806573376153
117.74645710399
116.03221955699
116.406411265836
117.200774195242
117.427621683058
117.011350377168
116.95974583546
116.536781905582
116.962993471906
116.726392227721
117.138144100716
116.901110619752
117.348925764202
116.764539149615
116.184285018648
116.712152991381
116.890111288536
116.506558612202
117.006773311254
116.364764850121
117.658840659885
116.665102217178
116.531209713275
117.389814619482
116.970053943265
116.880509840054
116.842752947324
116.442178001433
117.011799140932
116.160397512961
116.75085687846
116.947971538504
116.752979569164
116.906505217953
116.905657211027
116.794637847845
116.536366836241
116.818752678386
117.076552180489
116.946237638949
117.16628905969
116.583932927266
116.884789667299
116.960715464429
116.655795291453
117.012974402305
116.543740684896
116.724655299115
116.956544286785
116.562130396716
116.992129320496
116.26938292877
116.540595622675
116.187163656502
117.512606559127
115.669857060863
116.263806115017
116.115560758075
117.272649340536
116.447901498686
115.2793661506
116.209173370791
115.412506545002
116.097753608514
115.284233623265
115.967525612462
116.234850293592
116.221037725643
116.436436589983
116.059852679368
116.264291813871
116.507406217866
116.249254100031
116.261979639869
116.301303638125
116.6593318333
116.243643893533
115.829207138193
115.840008318995
116.447889662209
116.656900652083
116.569368776642
116.47851501461
116.151249712132
116.410044623842
116.122498259662
116.072222650165
116.304544949675
116.097298811287
116.243043926967
115.678961773119
116.685409418073
115.831731208007
116.0986305924
115.461860057359
115.738273546684
115.760077509814
114.755279026588
116.057840151727
115.686372912851
115.703339514854
116.027268508175
116.016301114174
115.934533870622
115.924240725049
115.451509171145
115.74717489353
115.187946422576
115.569220600469
115.076368085856
114.504130521423
114.729852198373
114.885747774955
115.418416480798
115.33913696818
115.25632862044
115.485543711403
115.050074269271
115.433587790302
114.834249861677
115.733092231203
114.745506210323
114.291965498762
115.13231827845
115.357049415002
114.935846732383
114.544182107272
114.483594124204
114.803678161637
115.285757394274
115.010940153035
115.079863952666
114.834259557008
114.901693288754
115.061130506419
115.207838969144
115.04448715034
114.806316810109
114.593625405275
114.642224247786
114.890488460885
114.575221951655
114.657167043913
114.587492904164
114.347451474238
114.797338705494
115.211400820437
115.232986027741
114.817466040494
114.807167092069
114.796942262648
115.021851517131
114.965401557843
114.592374502969
114.067456689454
114.150367879346
114.691690033038
114.708870565172
114.368019047342
114.453865782198
114.520931897169
114.650135551448
114.624102302257
114.25254051216
114.07317720078
114.103313649065
114.466142658697
114.332919217084
114.305812862697
114.224431386112
114.315197136008
114.135849345661
114.304468729907
114.346124211349
114.302747510744
114.061021636058
113.808399016344
114.072392690197
114.124494714368
114.262429755877
114.622702572899
114.594241383239
114.334324970944
113.869612273182
113.875442844165
113.969475771895
113.919189863935
113.877495532455
113.888356245425
113.941557680874
113.938444564452
114.027853819835
114.16122472937
114.025418593059
114.007376178828
114.060530483507
114.215906710586
114.092082260348
113.984804364865
113.901945838391
113.829773545914
113.854692253588
114.040539273471
114.115358780697
113.803884221017
113.723674683092
113.878486771571
113.845195314076
113.827314308563
113.829155535319
113.816008410044
113.738157471487
113.798443906677
113.531177030041
113.104020622262
112.954951842622
113.008399278495
112.911104651201
113.154892250762
112.973526691916
112.946027207095
112.861100020942
112.512327642309
112.554316824397
112.829117325583
112.749410116632
112.702374690036
112.553199392734
112.514322232082
112.435777748062
112.415440016679
112.641607854268
112.768291401729
112.392926996157
112.318499843484
112.366046185141
112.475929133206
112.584303311658
112.668587027676
112.756343554376
112.782553929859
112.447612027037
112.495385925908
112.737086406807
112.846637992137
112.712821587194
112.516689506958
112.56518266755
112.832721389287
112.96103345294
112.665530028436
112.379920027855
112.393835365106
112.448481033434
112.588386611922
112.775433441873
112.725797127229
112.489545055893
112.478052671041
112.399887333854
112.42138311277
112.410748765615
112.514323790788
112.471522377564
112.48256120143
112.515914952315
112.415473976112
112.279728699973
112.308682818056
112.229977048952
112.17998047138
112.18573603791
112.254897910413
112.132273755835
112.233390554009
112.200491591479
112.144818452971
112.060792636609
112.065426763795
112.15905736347
112.172608105043
112.080550230385
112.048275553802
111.920921207538
111.865368754599
111.961191957184
112.008085305408
112.057827707632
112.068316486503
111.907216708057
112.025964318125
112.010734464623
111.950020394635
111.824236506307
112.019536949795
112.146064925135
111.918346179468
111.789769646175
111.918378028384
111.930146925971
111.886544499125
111.929555046649
111.960146078875
111.786343048189
111.672226095614
111.710113446903
111.740060262696
111.705055941165
111.731692416874
111.730583611163
111.838533077525
111.91249242201
111.975188023846
111.774252988782
111.559388148634
111.586081294233
111.67432832747
111.736467445223
111.757247361786
111.724547010787
111.773616710085
111.760959781141
111.769092520314
111.682737109381
111.635731451841
111.678254910728
111.864964427859
111.853988436864
111.863936227371
111.76190844698
111.813110605507
111.815313818256
111.806363056136
111.771132717747
111.723109755819
111.709717105816
111.75092876452
111.752159718488
111.680168354987
111.525307558339
111.605068278989
111.718159289344
111.750294813616
111.678257416536
111.681484386184
111.79985144816
111.903419303922
111.909866611656
111.840048686653
111.766643870038
111.782804778026
111.785939559557
111.769779738613
111.715000760369
111.839408292899
111.827230527588
111.741975117624
111.750873825542
111.731077228797
111.653981450785
111.760959037628
111.844708552931
111.805705658774
111.781521184051
111.879484643917
111.849388672624
111.72735623846
111.604301328947
111.600643970103
111.719195169711
111.860610198371
111.801588406475
111.787011356885
111.703252384826
111.605386484468
111.558009504227
111.656719209049
111.627825007112
111.64759437519
111.743743690848
111.748833042623
111.796713801292
111.791463936156
111.640018705634
111.528965925379
111.605681798816
111.686992709664
111.498111825134
111.487399693298
111.587811867141
111.508018699478
111.371760095135
111.385685852344
111.427843781626
111.601849152321
111.596425646209
111.50430381355
111.418631388159
111.478489212547
111.392922186685
111.303961282001
111.097402266711
111.00504870322
110.918292338732
111.001879370594
111.120491137162
111.213360833316
111.169229245229
111.137007117336
111.05640764365
111.031242801581
110.962874763226
110.902897770996
110.918517590377
110.928721074696
110.845218945437
110.826443967253
110.830954651052
110.836816220379
110.676028827405
110.60033967279
110.625708609886
110.655612056011
110.651432347476
110.650039150178
110.667430922665
110.72136629908
110.665875556588
110.654950630028
110.614144292723
110.610567604443
110.621121438121
110.627048950554
110.760856665271
110.945196625608
110.991710315298
111.098020550774
111.080258458877
111.078924057938
111.059087505041
111.051738286521
110.981739913974
111.039108294809
111.016503333754
110.894888611552
110.735710620469
110.641448733452
110.658819311415
110.677962436862
110.578663389876
110.543427248173
110.455970383931
110.448724414964
110.380958912489
110.120535097987
109.937768911814
109.874404729389
109.725324084011
109.614205689333
109.491069236359
109.416178823629
109.321747502143
109.147934918378
108.939496952529
108.829370090912
108.592615073219
108.418833973462
108.185132610276
107.978079682651
107.760240806934
107.410904919812
107.037902369181
106.703109271747
106.320461737223
105.851338220295
105.416461750906
105.017775062169
104.45919359536
103.989635341274
103.602228102473
103.195123548605
102.759875556178
102.432711612086
102.21209408888
102.043955564468
101.85489439207
101.698468667238
101.472745987222
101.184299253014
100.826489261522
100.52278290475
100.065850783196
99.5181132177599
99.1324214432708
98.7014210511825
98.1331526897231
97.7183463846674
97.3695632419143
97.2335722728818
97.1518697767734
97.1951606406571
97.4856633613308
97.984149969044
98.5596228085911
99.2342939375242
99.8810744545444
100.513987757131
101.028580918096
101.413202810655
101.757890835014
102.108324282556
102.316075187442
102.526013195737
102.693481275308
102.901324941708
103.061261180865
103.234371150207
103.375065660084
103.584568810101
103.854749148152
104.148968657086
104.355496663671
104.622307346583
104.775709498423
104.872910165058
104.891951678584
104.802921814486
104.647747328041
104.520537302023
104.303047374501
104.051136997821
103.700225729456
103.333820784526
102.864370409609
102.220587517566
101.555942827038
101.247969949319
101.211721799981
101.415369664084
101.900211495686
102.745570526859
103.64892807162
104.539677979009
105.32666817924
106.010301981241
106.576557048658
107.007402519396
107.229565239482
107.489889173665
107.758802293542
107.99242255693
108.148162187444
108.23582822514
108.314735470451
108.45125950297
108.512587339
108.554304220268
108.563020456856
108.567164098147
108.576895979363
108.704677401589
108.765591327843
108.783745492463
108.770128954729
108.775785543382
108.840789791266
108.992076525545
109.056010208388
109.067969775556
109.030166662009
109.039768508854
109.039616546975
109.080395277349
109.061843527477
109.149961717914
109.19433324626
109.144748092446
109.131513775781
109.241442290496
109.198602976083
109.111374633657
109.111103013943
109.143886980401
109.174212362117
109.223623331301
109.227809695941
109.195237618196
109.082427332775
109.146613173157
109.277309401474
109.278343942198
109.191298249958
109.164503019954
109.160598372473
109.226701407281
109.233118505235
109.204400304398
109.188069705504
109.250917134631
109.276209050872
109.273634643356
109.226284718327
109.197138767639
109.132490400109
109.151244932757
109.193839347925
109.203499712358
109.218652995812
109.270168909652
109.293004670926
109.324357802402
109.318385100033
109.317307121763
109.303596033919
109.292607320592
109.254310483307
109.273604828038
109.273955438636
109.292006165673
109.278119158957
109.258201909083
109.194294594954
109.223977709864
109.284848095535
109.299468262512
109.24804292482
109.200107263044
109.175435078723
109.210609198891
109.147278268438
109.138389061353
109.18678486811
109.172987194118
109.131964487938
109.092438725767
109.041095757392
109.105096768807
109.116952324883
109.081423208405
109.075908260273
109.029418005427
108.952932587938
109.019554174184
109.039724253917
109.037123336468
109.037601852585
109.135376965497
109.11608079251
109.085654326784
109.120925810165
109.131106482405
109.057474305984
109.080820593992
109.117538216785
109.13661010445
109.129218218371
109.184356796221
109.145809792335
109.078578318316
109.076772462922
109.195201368292
109.212203295151
109.191841052623
109.167965886607
109.175366279344
109.13930935029
109.124223677384
109.170474264564
109.347470727633
109.315220363948
109.215614302801
109.21312391975
109.269381227156
109.318767066295
109.401147266005
109.410368130406
109.416281973928
109.375993777786
109.455907761125
109.510193200106
109.427742837065
109.299033226578
109.313837450149
109.233508716997
109.213111707804
109.218854428743
109.27098917737
109.301514825988
109.338663780585
109.276422129493
109.264286229977
109.231236573755
109.289044205727
109.353571925069
109.404705905859
109.315576337497
109.26889357092
109.295937406833
109.452587198292
109.408105955977
109.372905854443
109.32264966788
109.278910752543
109.173425677403
109.094641567583
109.081209868728
109.164505034434
109.211025601453
109.286652505782
109.194451908961
109.18535987693
109.270277772366
109.311602207844
109.229425117944
109.204807890811
109.172324612267
109.224312614271
109.16765165043
109.201678914807
109.197016281238
109.193806164884
109.155783236821
109.186813038047
109.257359399987
109.228494018092
109.049262403125
109.049246913923
109.047323033739
109.003441265294
108.961542488197
109.123352642967
109.100490300618
108.983434610625
108.994454679075
109.139965640168
109.06034916802
109.065067751592
109.131511897142
109.096896854186
109.053377251955
109.186660446746
109.135811208253
108.99313230858
108.932074000462
109.018552080758
109.006446918068
109.048283264445
109.050522623151
108.998851055944
108.87391523507
108.852260478771
108.774004592897
108.757287409906
108.849870073974
108.891563728769
108.748410336701
108.81814405968
108.891309306384
108.860913837257
108.764980001572
108.819953697006
108.802526637957
108.697050481725
108.626728185102
108.729625312848
108.674292813362
108.545731058851
108.467766329074
108.529573967063
108.571352106138
108.538577134841
108.439566568652
108.451889016078
108.384743748065
108.332039452624
108.334422290104
108.325259045764
108.22876585123
108.206635434436
108.18246640913
108.220847223355
108.215803831819
108.176146054804
108.002722424799
107.985968206064
108.08524059198
108.009909143568
107.804710172101
107.766857362887
107.750328696368
107.806153274135
107.716610045455
107.420231534584
107.275597032628
107.222862584743
106.940291703281
107.505107956119
108.080765613741
107.817061005231
107.938994490417
107.97195369512
107.950997656778
107.853409370924
107.718399678701
107.771749391914
107.625997598713
107.33307855048
107.40092043507
107.601905904991
107.720481716602
107.789994909731
107.909281385682
108.154140413926
108.017045242585
107.527221749758
107.437119628898
107.882389772885
107.660255772541
107.327053124462
107.5071784827
107.313235733003
107.195010077625
107.227446474508
107.215061878012
107.338281488471
107.437295310134
107.410377285484
107.293336790292
107.484483413892
107.676271637458
107.705600491906
107.622783053038
107.780686269109
107.828567691148
107.887922580098
107.82547268328
107.798583077851
107.901998534485
108.051290845881
107.95763609862
107.87965142921
107.922931473952
108.084213982268
108.07469711159
108.109244123131
108.127012052506
108.412911653976
108.662696017575
108.593350027783
108.679968177376
108.882598730883
108.749769707451
108.66002629162
108.649866514029
108.874650700158
108.964768353486
109.02825535663
108.956841524798
108.986273614504
109.061235115101
109.248285490808
109.421445818097
109.502126112302
109.254156308668
109.322086177668
109.335849397457
109.343263818729
109.419725851226
109.716031441322
109.7004749429
109.524008106061
109.432243080046
109.579439725137
109.472886987335
109.494935856029
109.570236877435
109.992936796111
110.064689699601
109.921560557749
109.787795166706
110.127050020178
110.196249340231
110.288724361805
110.532832836395
110.561872739155
110.209591212301
110.23129265729
110.501796658168
110.701963977984
110.502550061712
110.600094235183
110.653114994438
111.059662044918
111.250390175881
111.446645275132
111.221367174952
111.095497412648
111.278028190318
111.576635678194
111.457797971207
111.343594500241
111.204975441525
111.946471719546
112.34107100958
112.560308637416
112.548501052595
112.570696001006
112.631042373797
113.545096073458
114.470894702925
114.441054339083
112.507265419011
111.503279667667
111.30079909156
111.037677063311
110.612778254763
110.520209603527
110.097637501028
109.761622499771
109.319649063652
109.55241692376
109.589331865107
109.503179804748
109.32144282338
108.894526840887
108.466341412853
108.442625860954
108.238637142224
108.159614858391
108.118295098454
108.12285210561
108.019109675415
108.126933429379
107.932814689216
107.855885105466
107.674177184527
107.667516191933
107.789760141003
108.020973888633
107.952768121743
107.943295710569
107.831069852881
107.903913421984
108.069758478621
108.143966674958
107.862512185451
107.84031275116
107.769389425815
107.78323486381
107.811960930909
107.93500570178
108.018824434504
108.052390442201
107.954556360771
107.954102746812
107.863650343048
108.119436844084
108.220299014547
108.300877879702
108.170110627601
108.168644138138
108.356061231726
108.598879967898
108.387990026794
108.571198433077
109.001989080091
109.078264778272
108.85867440246
109.356464579305
109.975151038906
110.550170048531
110.20332389328
110.121530794014
110.392101199206
110.514630982659
110.569005085299
111.182255396321
111.194101905403
111.131718645399
111.042096040082
110.893298365727
110.713736889394
110.886365444488
110.710647840793
110.103961485367
109.698084059327
110.142491105434
110.058653216572
109.96204271242
110.060456128789
110.33486817311
109.937505716889
109.848578362298
109.461165436199
109.152724346282
108.988961375918
108.816492896012
108.620364308602
108.603968455706
108.466923898986
108.744357096219
108.908850942441
109.109732270617
108.828297884366
109.120138819557
109.32541989853
110.249873581819
110.507564175033
110.016158550179
109.294975723619
109.20932448192
109.234663476129
109.225758606992
108.965056668455
108.490872091344
107.993502857033
108.333627157272
108.148290152253
107.647103552125
107.122143898811
106.900899782563
106.633814071022
106.681702761922
106.742811313169
106.954854557809
106.375839974985
106.214107158321
106.213490056405
106.456335819908
106.40066527
106.550472311956
106.518901640105
106.354266153126
105.999189513905
105.931168705811
105.818541486289
105.966692336591
105.951020371431
105.441616362084
105.659299171731
106.006865078269
106.03826950733
106.005896407817
105.728837121797
105.770517079249
105.856679519263
106.000893984873
105.878487640389
105.928095334329
105.81082015401
105.675587416365
105.543116319842
105.726747307558
105.363225408199
105.374123425343
105.531958597574
105.523585302392
105.417214452663
105.494101078669
105.509358369151
105.539414957089
105.491669747768
105.465155048683
105.546972582355
105.218260122231
104.801877360017
104.973914187269
105.039544686016
105.204885458087
105.186824064034
105.324144014961
105.06557102996
105.043331759522
105.051068534834
105.223010558003
104.799240974191
104.820756969728
104.554984751347
104.079343251692
104.332787132651
104.494239244793
104.44960630769
104.315235500413
104.215505076787
104.410146988767
104.018571120995
103.922462955972
103.87109564982
103.607753125726
103.840390717678
103.808460465359
103.971897735929
103.881293740249
103.870184351766
103.915748227908
103.685471758565
103.505006659222
103.643118727795
103.705642236876
103.705751556743
103.406387536772
103.172706019565
103.301341037944
103.254571349024
103.333138362195
103.037190815347
102.565810171936
102.822354865978
103.096052706669
103.059921905458
102.93501311885
103.045606859841
102.629116834525
102.806778259441
102.518312186469
102.745607306651
102.083683526867
102.07712430081
101.826289805846
101.883923012726
102.187018547777
102.049013018537
101.647478846318
101.635664371158
101.157460626056
100.841148657838
100.648713227783
99.8382740671162
99.0343886252737
97.9030458664953
97.0422424821141
96.0381606261882
94.536905761328
92.8110410242629
90.2613537891249
87.9518203916189
85.2482937804583
82.5347345867018
79.3836241551298
76.7723503457006
74.8949180466565
72.7693924635214
70.7305465244761
68.556417490155
66.7776512850677
64.8845711501005
63.2679830001342
61.5522167993104
60.9835626055198
60.7300363003398
60.9617910230717
61.3612505179269
61.9342112655589
63.7146065074516
65.1911427568241
66.1831165175377
70.4129300768489
71.3364968603893
74.792298207325
77.4583344051198
78.7995559132054
79.7664359620304
81.2300293602361
80.5594994723695
81.3077082707772
83.8281705732945
85.0333994952669
86.0191131142755
85.5702359909565
86.5644860756682
87.685021359202
87.7048423296578
88.3271547543351
90.0493660387214
90.8104178481828
90.6450420075812
91.510076889178
92.3384231750569
93.034430505965
92.7197347338299
90.7992417386158
92.0487092838726
94.3123803964191
94.0114793375995
93.542689676035
94.43239310357
95.4093853600309
95.6374393377543
95.7129769153282
94.8520589163508
94.5706752698755
95.6828012296216
96.5358184279446
96.6043172998813
96.4095805019024
96.6797899562306
96.4147270912541
96.7347891181007
97.1185943216329
96.8539613818886
96.247495063677
96.3296170683853
96.4267359320317
96.8601772736024
96.8402683838745
97.1625949657433
97.469163899711
97.8160264499704
98.0178461288122
98.3521318746039
98.599218069072
98.6949248890154
98.6808102733083
98.7569233922107
98.801455434407
98.859410233008
98.7279140313869
98.47046921168
97.8683128054665
96.8365028780437
95.6828854797753
94.1748814114899
94.2373932066496
95.5013857434166
96.3673706699533
96.6478044269284
97.477913848426
97.7934501520986
98.4615950585478
98.7506727724534
98.1155545519597
97.4303166707403
97.7269794209422
97.9789998533573
99.2208140689859
98.8827919838694
99.0519898318805
99.2702378865297
99.0866400019504
99.0107261534147
98.3473390515373
97.6690974479579
98.3995261156567
99.1955802308729
99.0234314657919
99.1998814151466
99.0078771846352
99.3968726584107
98.9879682692074
98.9517226353212
98.6914944923439
98.4846410280745
98.6810427296637
98.2063970584771
98.8775194796281
99.0080932157379
99.1816432401128
98.7493280782447
97.1319670123994
95.2874004207867
93.9658485665922
94.3808039812702
95.8839662875125
97.1013978551702
97.976229640065
99.1346555019681
99.9280191534643
100.035653046232
99.9950611525475
99.4079122898302
99.6547961386623
100.008073380181
99.9301031510256
99.7419250447292
99.2039685150257
98.614934157129
97.8041087411688
96.6736340545625
96.5048147404884
96.1552811731059
96.023686089601
95.1189222566011
94.6004911773078
93.9423572261919
93.394760526549
91.9631025043381
91.1821919242347
90.512532898915
90.3696084379308
90.2609698784158
89.926302958385
90.3886803547426
91.2381163037132
92.1586327388862
92.9186927642885
93.4012833990863
93.2505103770326
93.9646827900892
94.8588931554794
95.92281670468
96.4907828302201
97.1141475435376
97.6358990527034
97.8834314940237
97.9916613316269
97.4318011749823
96.9159053854032
95.7967440599995
94.6192240673759
92.7008629061504
89.2130553045057
85.4195790602925
82.8718753954348
82.548250553786
84.2617283266044
86.7983784437133
88.469732692957
89.899308198611
90.6834177059073
91.4236231939284
92.0458017740717
92.6156692787876
92.8584711767786
92.9131315883815
93.178280626588
93.4869069957109
93.7421239093844
93.4070652527357
92.9799100724837
92.2258534265065
91.5741652966914
91.0754332372518
90.9088855055622
91.0532491542037
91.6864063718161
92.6063182066546
93.5761541484973
94.6689740137579
95.8029013697009
96.5992501219814
96.9354916347823
97.1067773424088
97.2053891914775
97.206369770187
97.0968733133841
96.798120164512
96.4105423698958
95.8819180573103
95.1406074406263
94.4751056705667
94.4583296151513
95.0931496788221
95.7664012411686
96.3056476380839
96.5620258551348
96.5438916728992
96.2622820597293
95.7902117951601
95.1964103156719
94.5138704977332
93.8206067045877
93.2530093559184
92.7674619808391
92.3229331870875
91.8694690517573
91.3254242655276
90.6308576893695
89.8466149880675
89.0665851534261
88.2552098327419
87.2862890860359
86.0011863387198
84.4577901903586
82.8450828274308
81.3335241038437
80.0039452616114
78.8504179155992
77.7922221983097
76.7432921359977
75.6806232054139
74.5555674601638
73.4254651407347
72.2955605450014
71.2046001104339
70.1406389822987
69.0908051684198
68.0236725272931
66.9545206632176
65.8421838953701
64.720813249399
63.6419783104844
62.6996412561511
62.0402484471114
61.7087733912534
61.5442226908158
61.3756705919335
61.072714653056
60.6114400659141
60.0460199209087
59.4181561625732
58.7745734577205
58.1607908841436
57.6564873239868
57.3324603946703
57.2185190771954
57.3812581956442
57.8358457219625
58.5854226067691
59.6188721191364
60.9208113905787
62.4394525538904
64.0353041482981
65.563183651536
67.0243144079681
68.5189893868035
70.088979582151
71.6624708149246
73.1728486735818
74.6122053805972
75.957404053502
77.1903332091165
78.3653488441813
79.4979572381142
80.5619525314273
81.5741220590477
82.5614690887617
83.4964193199953
84.4031185224168
85.3233020819145
86.1991074740104
86.9642362678749
87.6273950631036
88.1113571827169
88.3086129316319
88.1934313354088
87.7945856072781
87.1996925674522
86.6039512592493
86.2344936857647
86.2985942407456
86.9311349871073
87.9855453935968
89.0880992340586
89.9545990415604
90.5323606701575
90.8829251297219
90.9971859489459
90.8631004351663
90.5353670764184
90.07892843533
89.534482718384
88.881211870481
88.1006127446924
87.1776570627286
86.0933537931347
84.8873570961837
83.665155739046
82.4907466508172
81.3425841144864
80.1819571403974
79.027353613307
77.8210320351151
76.442971350333
74.8791563515473
73.1467312378945
71.3229675391022
69.557452984902
68.0041268491879
66.8186582255652
66.1379538251149
66.0773579781874
66.5641104197443
67.1443642986358
67.1885692966718
66.3823916698256
64.9680824148726
63.3432912714256
61.7925126840255
60.464133729415
59.406026943493
58.6255656005813
58.1285264066056
57.897428438428
57.8599886613653
57.9752233402023
58.1818147167351
58.4301135164516
58.7808999368283
59.3524460911353
60.2253692530142
61.4187869307191
62.8605675214152
64.3784913863345
65.8671096883322
67.3040429891803
68.665097673572
69.9254251943906
71.1170741875856
72.2324699870791
73.2324301837978
74.0768110703012
74.7099490297148
75.0932248084732
75.220921253559
75.1150557864288
74.8397417339085
74.4813468025107
74.1300846998075
73.9116923315193
73.9304216106158
74.1591522747033
74.5398196256943
75.0292763954348
75.5685427168773
76.1070286958371
76.6330551816228
77.1686691379153
77.5698569297738
77.3584626836802
75.7271682781003
72.1980754691225
67.5607154090638
63.6840004283221
62.3247328738043
63.857926283439
66.9066751775919
69.8794453109216
72.3158209017734
74.2684957352948
75.8308288912339
77.1453916233747
78.2303176600977
79.1306352157525
79.8922684509271
80.4703001448085
80.8600452586118
81.104535040373
81.2473773924681
81.3281624496873
81.3918245608282
81.4289773922853
81.4100248320175
81.3152260135721
81.0678854910862
80.6766255688399
80.2538276643861
79.894098451271
79.6334743531106
79.4896871157177
79.479688073947
79.5656661136416
79.5929606106418
79.450460434403
79.1216302438963
78.7397921246261
78.6542245292318
78.926555691098
79.2962619505781
79.6920443772479
80.1573540776074
80.7359554309631
81.4512325719436
82.2357382500488
82.9668627542377
83.6015899667374
84.1574822199769
84.6139894191123
84.9529940214563
85.2281047069651
85.5310520148342
85.8405452327384
86.1194528014386
86.3910081916889
86.6882890141769
86.9933004439071
87.2613070272972
87.5097679281909
87.7024526419846
87.7853904710539
87.7174798183148
87.4835957534502
87.0785128597703
86.4971355751563
85.7659111064038
85.0940756615611
84.6197310819952
84.3604224723483
84.3308785060165
84.3529785994604
84.3257515057934
84.3251514196359
84.3055610202002
84.211783409602
83.9376582576344
83.2727387825486
82.0742300470143
80.3439643395252
78.2427415089655
76.1065677919164
74.3884531244155
73.7498824536649
74.4438577695782
76.0391597062967
77.9572161365064
79.7153447905739
81.0891063551951
82.0488833311196
82.6619617511927
83.0728328287316
83.3004489484043
83.377730613394
83.3880200360828
83.3971370366895
83.360265274626
83.3206204716994
83.3542816660876
83.4332623147696
83.6124659821462
83.8949803753736
84.1874698238009
84.5000760206332
84.8474784639184
85.175537101636
85.451000000159
85.6664706345566
85.8239297551566
85.876253674951
85.8954033069907
86.0085645677725
86.0433173106126
86.0040992501253
85.9929867910225
85.9850408707898
85.9572638962865
85.9039372758412
85.8692181150568
85.8778046355552
86.0315472698184
86.4226506310968
86.6830432160244
86.000363664743
84.3585948315531
83.1234911844387
83.2934094651878
84.4706122612844
85.8827814220904
87.2310019510395
88.3988370936983
89.3378646948172
90.0448788401884
90.5264300590297
90.8485771035502
91.1430763729583
91.4719061057319
91.8598537380728
92.3681909041898
92.9599119547438
93.5116698600186
93.9387912944584
94.2424779414367
94.504952480974
94.8407729971758
95.2067499019517
95.3835217656701
95.4628657700406
95.4310066475725
95.3161295449163
95.0003715072331
94.2606894403759
92.9580954070542
90.6051888308253
86.8193898736948
81.9439480144039
76.767130644639
71.7915422762639
67.180270119893
62.9281009098341
58.8223352641158
55.1071985906644
52.5799122553338
51.9751030617458
53.2013336107085
55.6370557677368
58.7793348072364
62.1622563412738
64.8566818141514
66.6544567531045
67.9042566294598
69.0275250205623
70.0961663640818
71.0896751990638
72.2975108472352
73.6507676194834
75.021478901226
76.5223471264798
77.7077053488652
78.4248046639702
79.0007629528086
79.6554153744361
80.1973188306122
80.4744054439198
80.508388012763
80.5655700128166
80.4828549526615
80.7724858506403
81.6011019324371
82.4576217698025
82.7272189923389
82.6684326910864
82.8185049575341
83.6192005936143
84.2111308004173
84.0707645436942
84.3263335412579
84.4112434399601
84.4418419190382
84.5410471625036
85.0927862985274
85.3796847225443
85.2572438854897
