1798
3999.43349933624
650.420452594757
1
128
4
120.676804641866
120.41599881617
120.310134692287
120.516104059978
120.631745596438
120.659439299298
120.426890688005
120.371565814487
120.625310249452
120.761878241975
120.584644648243
120.460713228113
120.450089435989
120.550900231717
120.539565849774
120.394631389724
120.504188989681
120.640856919427
120.423262965842
120.395933805689
120.41547348636
120.235216588714
120.293715355577
120.3166673901
120.093657074612
120.013159151317
119.968826900011
119.923703664428
119.945510301872
119.825823724085
120.028227333462
120.152355385649
120.079445036012
120.123938603291
119.990041067
119.80925019392
119.511536381364
119.613610167487
119.887996999421
119.674382483001
119.854408952605
119.500741560112
119.98693538405
119.817437963835
119.596524829078
119.562096089129
119.759523622357
119.725056463359
119.420569954696
119.613336951609
119.233073866184
118.585306954224
118.599766200221
119.166958018385
119.193753105839
119.153956905161
119.590601872908
119.194978858909
119.271027612835
119.36705925785
119.315524646489
119.347774455008
118.55375270997
118.900475952431
119.049729502938
119.145767438047
118.747483284691
119.541409224842
118.303043414395
118.781500177595
118.6891664488
118.725489427492
119.588030106783
118.934915826493
118.75351757689
118.119617701984
119.352033967206
119.792523019312
119.731600669377
117.895053201816
118.481347734921
119.245154831148
119.49266725205
119.148092340002
118.883423977456
118.346013263133
118.788202940162
118.658003957464
119.053788577984
118.724195355208
119.128897421652
118.658263403783
118.415476216185
118.783932421218
118.797703483771
118.76371348505
118.895012297232
118.175273961367
119.919422365056
118.746791589839
118.715402239014
119.244753764023
118.781050094336
118.761496560642
118.508028655318
118.385412431266
119.153322827774
117.925204100226
118.780070059264
119.040990457207
118.794387786092
118.988195889954
118.979675713934
118.880179465181
118.695493445017
119.052202146358
118.964251874448
118.901914610153
119.281247755716
118.637936416956
118.879194095137
118.805544853417
118.718307075665
119.170663025744
118.472050234118
118.750890118965
119.005337081307
118.746824191555
119.058335400453
118.128022125586
118.222224953742
117.711805200157
119.131119197632
117.342529194003
118.065977393368
117.594004465262
119.61711709637
118.276618735255
117.127017063902
118.039128364693
117.159063462642
117.639453140752
116.903145996909
117.759153152403
117.94589680385
118.177746718451
118.500194989952
117.828694793081
118.140081891152
118.378045635334
118.289660215932
118.232093173071
118.019747932581
118.529364080488
118.301423984824
117.838133433857
117.900299089788
118.414069685087
118.593302635467
118.589769838734
118.439460294733
117.911322045795
118.270904880187
117.940276392872
117.680333522515
117.743473526326
117.857986201142
118.06271432663
117.52296232888
118.56902299307
117.668684459768
117.871929585098
116.80728002592
117.37415700974
117.228325199854
116.182650643066
117.927921283218
117.425174988518
117.314964906115
117.609541840764
117.476510100131
117.408659950417
117.379269227944
117.08907391389
117.406193925794
116.425780930329
116.86297814664
116.079879744326
115.560762710711
116.054548412363
116.177535880991
116.69316315805
116.608759143084
116.638726282699
116.645290495276
116.192444835932
116.391803124796
115.402172453005
116.744998372186
115.693359344442
115.462887743694
116.306205972816
116.211496514561
115.619556689537
115.270885408884
115.077299729683
115.662491011955
116.268587957913
115.857410450395
115.900922075953
115.532402853948
115.654750176273
115.953553315862
116.027092085559
115.900936957706
115.672435413587
115.397346100362
115.283356144837
115.481440982957
115.27808346396
115.318968036797
115.1976554525
115.15151760221
115.709908895844
116.074039030378
116.013994677542
115.712385218148
115.520303097713
115.25212534351
115.287581034877
115.273512153917
115.24848194991
114.781251332343
114.780183416669
115.216766683511
115.068423777845
114.709711321993
114.800973935107
114.74463997729
114.652156870606
114.741248703802
114.561053127914
114.332983766204
114.209348038321
114.412685771383
114.370238082858
114.582175286926
114.598032587107
114.604941629097
114.298873578946
114.50163298148
114.339030897888
114.094795684767
113.961723702728
113.84267482691
114.092759748523
113.952340160967
113.958772913782
114.166453916183
114.241319896822
114.39451271883
113.989706604257
113.927742171386
113.917906376331
113.840394112365
113.685460426471
113.692771044404
113.939514350989
113.899136070577
113.763922533553
113.824283273375
113.661702774236
113.661957012477
113.696944628434
113.810726902687
113.819741216111
113.914708802187
113.909718388689
113.597998843215
113.569445712152
113.787673030524
113.719463553082
113.283337978588
113.073812576273
113.343750579829
113.571319624344
113.510209725094
113.364427281728
113.316582784773
113.086786616025
113.235957724798
113.153102404023
112.971438310217
112.885498639633
112.781127094583
112.514873650411
112.71090860374
112.422048600234
112.265620094138
112.085974741381
111.693672849245
111.641767389398
112.08423548509
111.991467528152
111.941032218275
111.668677783974
111.483861122176
111.565611958396
111.594053331196
111.599148394102
111.758239591867
111.485531951876
111.432514901527
111.509830380578
111.564896884824
111.571656671309
111.737025110601
111.820298599722
111.799053309283
111.510187725831
111.410616603167
111.567493634489
111.912051057927
111.788648305143
111.571510896929
111.669341031637
111.976021883096
112.054708687532
111.765550815161
111.518773660991
111.440160813692
111.337180235391
111.686876143786
111.979265017024
111.763852565576
111.515490787758
111.50482799164
111.378793423171
111.492997006793
111.548914849977
111.542810257348
111.449465795922
111.422984163754
111.382831666266
111.324025553209
111.283702682003
111.397139215568
111.235669837059
111.200187988328
111.351056055341
111.405088950066
111.168625486404
111.205106977822
111.045787715588
110.957967801285
110.859385534022
110.987231109774
111.131306781303
111.147541414951
111.038029234511
110.961867350755
110.961515998474
110.977521982296
110.971367123266
110.990847524446
111.079405741997
111.088233993674
110.888107595219
110.966801372789
111.033085314249
111.114142557793
110.955402400037
111.026284871594
111.066282657844
111.017936851665
110.974072373107
111.034265768399
110.892803615075
110.724087966851
110.76135976914
111.031449735166
110.962469655262
110.857701886181
110.723044780743
110.607545040108
110.757136917622
110.880092141124
110.775430826501
110.846241459583
110.800937632565
110.800902397682
110.750888810062
110.784854875385
110.863842694066
110.897865835406
110.866464335045
110.8120922831
110.799714738292
110.941587033582
110.997100619311
110.976423227411
110.858556735933
110.882794172116
110.998588093664
111.174561531095
110.980136872653
110.914453961639
110.999859677621
111.233131228561
111.200804992059
111.079382137564
111.01049719577
111.013332195222
110.954560185435
110.948149178373
111.07633909017
111.133321738426
110.994431425857
111.093787361712
111.15843187692
111.13408422371
111.117133051796
111.168890118043
111.234300820688
111.288208480517
111.294584076653
111.208139953388
111.132189841348
111.251345436651
111.336387983729
111.300209147272
111.249191873092
111.408711943886
111.407622230516
111.327519495966
111.295130813145
111.252741611447
111.1016515136
111.143561275248
111.245587747479
111.348639832954
111.396240879956
111.53501826821
111.526034692564
111.395144641515
111.327383688669
111.429195391889
111.525698892717
111.656811777532
111.67350458587
111.592126670417
111.406400376162
111.405342622324
111.391698730078
111.415504572831
111.393535097909
111.452837084399
111.534205715153
111.580759945487
111.605392965904
111.542806626423
111.464349191994
111.392478092149
111.483608004888
111.587580288816
111.471257997093
111.560131395222
111.469606032161
111.260911221436
111.167716167796
111.243852343656
111.285788030523
111.369620559211
111.348327246586
111.410416206177
111.463811667142
111.496377146463
111.302724443307
111.178513309336
110.955270763371
110.882271311292
110.7072267908
110.75239227578
110.960524159954
111.053484327725
110.982818962845
111.029232155182
110.977755344046
110.955005279519
110.825045886117
110.813460908652
110.896969843834
110.893989327511
110.775231019898
110.716369101063
110.650344807236
110.610888859498
110.502392744164
110.44662516675
110.472319258943
110.514239953998
110.485379908557
110.488188280429
110.543899691631
110.585213998388
110.517708186712
110.506642001429
110.458233030066
110.446998735085
110.417681779431
110.416066358058
110.629064542243
110.851140527094
110.908480340589
111.132165684107
111.164033514756
111.134399652497
111.115890490788
111.173191272459
111.175267725848
111.180166880209
111.085673087821
111.000512170111
110.858922583053
110.746881010741
110.729437707339
110.746348484801
110.612254548008
110.499045717996
110.457007045014
110.440230637901
110.26228129534
110.030062323173
109.899906049244
109.818521075211
109.618315793933
109.435744600639
109.270072488798
109.174695800815
109.01377528781
108.878722078105
108.710392477022
108.524031773565
108.188822062665
107.875777192816
107.521305361269
107.325132019709
107.11150296091
106.667151382241
106.157070844879
105.667814377855
105.116662508987
104.496273832384
103.855834884565
103.182479379593
102.358715244677
101.708217915997
101.094847108418
100.432286075738
99.8575710786455
99.5235645820837
99.2377567795762
98.9835885364897
98.7662233787916
98.5189491360966
98.2138231543102
97.8801325926035
97.3886552257296
96.8888990925825
96.2538192361948
95.4744219432155
94.643038846972
93.8061408725049
93.0130708050601
92.276361619002
91.4961072246269
90.9826136125979
90.610753978604
90.4852305515925
90.8392249404534
91.5868880807786
92.484575059257
93.5683691508843
94.6433850432784
95.6733555827969
96.5504679256825
97.2847187963184
97.9044936732781
98.5334991222452
98.9740309720595
99.2891692253858
99.5445955322175
99.8703648133033
100.122896515824
100.340546515117
100.547667887552
100.872492197826
101.224769362681
101.650819280914
102.046618195422
102.441212976341
102.687971495583
102.858764255039
102.932975544124
102.91464707515
102.783839616296
102.644928513376
102.425777682752
102.151246836416
101.699204528369
101.137925903489
100.359741255019
99.3104169158293
98.1942056294906
97.4262076292618
97.0203648226313
97.1496475584162
97.8424905459
99.0309344869115
100.420187968114
101.805311153645
102.933373035273
103.999597664177
105.001900476775
105.758206707862
106.21852950077
106.675129686683
107.056541802302
107.369408188077
107.598290909182
107.749235950323
107.899728141472
108.097447367121
108.199488000373
108.278927700324
108.347580950405
108.425182339971
108.489436385116
108.645185018514
108.705817699293
108.731117028344
108.692963176291
108.691817564196
108.783132027765
108.941323220885
108.995138423759
109.042604624765
109.040595760685
109.069914078158
109.094619991608
109.194777265823
109.202775858575
109.204954621683
109.244953862809
109.297323010857
109.29129660371
109.336941308321
109.298684089097
109.25246117716
109.257582118701
109.324006779391
109.347881197399
109.392031328541
109.387400392899
109.358668570928
109.318057040012
109.367763203202
109.442983887168
109.481771746242
109.425591905431
109.393699587144
109.394067408543
109.460918347479
109.471981616193
109.487943569992
109.443612189579
109.446016257371
109.452767869164
109.47194527885
109.451907249109
109.433269281158
109.395141910274
109.384699352472
109.393600186119
109.451601965273
109.499279384109
109.562184787359
109.59750430015
109.606419392174
109.57193678044
109.610388651916
109.627976997276
109.573311751554
109.479406044521
109.469137499495
109.50809022949
109.611080120041
109.625896697745
109.595502076925
109.526463028812
109.544439029561
109.578070924566
109.571170763182
109.483887584721
109.461171063719
109.487374950509
109.546642893071
109.472269282274
109.455565492764
109.503932208016
109.492045156585
109.437117399097
109.380676213024
109.274424119868
109.293710736796
109.358559877846
109.38653481338
109.369016407299
109.341895255659
109.283672228009
109.33708685555
109.346988374694
109.360458111723
109.386344282785
109.460462619816
109.415836695571
109.389852501663
109.416736204728
109.477266423891
109.421404909044
109.395384547344
109.397969301554
109.412536837012
109.439242131057
109.533946546132
109.528142927043
109.536765560079
109.538077671706
109.555169309248
109.55858879204
109.581886442484
109.589591568095
109.607424266341
109.576409179271
109.564372566611
109.531156981965
109.678474883651
109.648931329478
109.579674745685
109.616718315147
109.720748135149
109.8492583612
109.976614853583
109.933842397369
109.927654384219
109.90405800346
109.936153974068
109.929866031245
109.874001171995
109.82734067403
109.871406466304
109.866102516671
109.933504521401
109.890124217295
109.847460126957
109.791296249597
109.805270063715
109.854224453993
109.92370408379
109.866316980932
109.947272188461
110.016241203265
110.060856111075
110.048672131421
109.962404478895
109.870183970644
109.930835853606
109.943896726349
110.019794588179
109.93684859123
109.905264512593
109.853342069414
109.724738456107
109.64653036821
109.736383186593
109.68542236384
109.716003361742
109.721587527556
109.714078236631
109.73211109831
109.802732135708
109.770796373452
109.837776211909
109.858485806898
109.835214119851
109.771100157009
109.829243910479
109.843625459574
109.801298848201
109.645470712549
109.633734726214
109.724001437868
109.75488941119
109.551886205637
109.557953333947
109.671026042777
109.733807391605
109.713521420321
109.720905565677
109.632818447461
109.553645153813
109.586482184173
109.71491620317
109.631119399146
109.696191980233
109.762630269698
109.738367243939
109.67421296732
109.69786840062
109.626428445713
109.577483991854
109.49455902923
109.501967067761
109.51932197921
109.6168021394
109.672735030458
109.623588289651
109.403212916471
109.297866994979
109.254491909905
109.320619631059
109.388102690014
109.431649991759
109.291823129199
109.312030105539
109.348082800201
109.416334428934
109.407891290472
109.380575426215
109.377233610095
109.313482396504
109.1551590228
109.215089497212
109.218496092269
109.089990303667
108.935078914126
108.988252258551
109.025913833853
108.984082654597
108.900552337977
108.923178964885
108.894498480866
108.837980862739
108.813614418845
108.780207699657
108.657758907265
108.672973107105
108.678775730199
108.657533539514
108.596563294583
108.530261932516
108.399516258666
108.354757086156
108.409371523369
108.35597092663
108.136447179413
108.058274970927
108.041569233817
108.074876649514
107.946824740348
107.645856186449
107.517675081109
107.465720140692
107.16672964965
107.764077017386
108.499617873589
108.172670151132
108.258771200987
108.403175490292
108.224187427342
107.992782112599
107.930975311064
108.190387002935
108.112212814154
107.7100220609
107.681506149281
107.82559629751
107.941408793112
108.040449490943
108.133310877003
108.447584207126
108.41553099451
107.844702472547
107.637975035427
108.143560077025
108.017124364779
107.575842686519
107.727639809053
107.519987461925
107.409190386681
107.558894393067
107.520346343865
107.593925941387
107.755235270084
107.783470998692
107.594292842533
107.750556296389
107.986297885758
108.073873043513
107.982199848447
108.098717601823
108.182721588074
108.242806099279
108.274272467647
108.348040350785
108.335108242173
108.410326465559
108.349066487342
108.412718835392
108.565241340402
108.672441096621
108.62454889932
108.681744324334
108.62095358562
108.88387313163
109.246895339007
109.31475859703
109.33927537275
109.543026759267
109.448138941767
109.511563746596
109.486462692751
109.513065608509
109.608604837143
109.662737816664
109.70118879909
109.987958294408
110.016573872538
110.11396313658
110.061436115164
110.271175803998
110.372679010196
110.338272698364
110.244348914097
110.544345492671
110.620309910188
110.670451637339
110.514716798374
110.472764036102
110.602427012824
110.709131489764
110.438487977355
110.427890930392
110.437211069569
110.762777729626
110.777756362007
110.74401006518
110.950707626845
111.458008245049
111.32932435124
111.34071782715
111.566786024732
111.693706996078
111.619026999001
111.836689850401
111.891548536754
111.866025006373
111.677337156444
111.936511741396
112.066555427827
112.558274521177
112.435718983748
112.20817940926
112.619250739608
112.898823728764
112.882510721934
113.038902063533
112.549990272422
112.539670307496
112.665501572712
113.134459188854
113.829467599525
114.454409361909
114.150710148308
114.499545883134
114.635407628281
115.311765051636
116.293689340005
116.117158071945
114.024021687334
112.931021242163
112.147949708723
111.837520987854
111.794537025751
112.005066353426
111.638526257745
110.807938720937
110.069791851838
110.325521731273
110.34696776902
110.183539490403
109.945890371772
109.534775734403
109.141427294756
109.053047456363
108.804465812158
108.702036938275
108.576467419852
108.506614005176
108.583308386399
108.674962361671
108.352870773367
108.301956114909
108.254831089701
108.276239310511
108.256889350828
108.549798089116
108.727436312997
108.634111823252
108.306499720929
108.405814536632
108.62868267606
108.620396402435
108.402904321432
108.470136683912
108.40820062656
108.322148882314
108.267118491483
108.353879891819
108.438832843223
108.630631956074
108.603843615213
108.664952443851
108.762846558211
108.958386626345
108.835218326333
108.903597719969
108.987456440155
109.152271801079
109.227326257245
109.455411826722
109.337790773725
109.426358684066
109.708683506657
110.05043194794
110.184854214949
110.626791347213
111.099046369212
111.64918466385
111.55742737302
111.840645449551
111.926201376694
111.787867211748
111.615163956589
111.881338578974
112.041706328151
112.393819005971
112.175994418799
112.147394973476
112.00063425551
111.816496047443
111.577562617599
111.187630669638
111.089133944652
111.734714084263
111.528791439997
111.386131560676
111.188141907443
111.065049658118
110.589145903615
110.653570850706
110.255298611438
109.840171033875
109.949458059225
109.973255071035
109.787253671321
109.564676422257
109.405592251576
109.760899915352
110.004373280511
110.224306075561
109.983636272566
110.399903033322
110.65238408152
111.292716552411
111.093900244256
110.784792165027
110.406397174183
110.161564787662
109.763952660199
109.81696095452
109.646796124975
109.30290442663
108.810885533542
109.064701042827
108.823750683394
108.419439417366
107.927061079032
107.666413707067
107.402524037349
107.318378103671
107.227541486394
107.327625054319
106.719703775316
106.661022041785
106.644731287986
106.791634993243
106.828723497917
106.919942789525
106.752435111756
106.662824203762
106.412173163087
106.445521358549
106.315433031919
106.270021061057
106.258536295562
105.808136965583
106.119102415637
106.331083791142
106.327257984482
106.283725480771
106.084636127109
106.179851549974
106.199393013921
106.333913495142
106.242473200537
106.218742316486
106.088435159567
106.022000821441
105.870421718965
106.002680994458
105.600045662107
105.614424225187
105.766071145587
105.776688477109
105.73104000714
105.835964698757
105.812541851876
105.798296952366
105.75120563741
105.755092005734
105.807055576395
105.43101115177
104.978371724297
105.058572511144
105.185605348447
105.473137448312
105.455000618366
105.500488232671
105.267191009752
105.352378069241
105.267813676965
105.390249881725
104.999200977069
105.092286325872
104.73965575012
104.258826342676
104.501753084708
104.612165760488
104.613419027943
104.521998813916
104.432768950578
104.572164678124
104.060033441007
103.981181382031
103.923858601631
103.633080432634
103.904837602688
103.858925445944
104.053810325612
103.992959336542
103.980383989306
103.928913148164
103.707267429175
103.59140859832
103.740143868533
103.777410541654
103.77261230688
103.446357535084
103.116585848588
103.257192594208
103.2756508162
103.350683263489
103.033701398145
102.578121587612
102.832297726269
103.120071233913
103.048395493099
102.900071605255
103.054941529004
102.620631958529
102.81095717789
102.503433306637
102.731482101336
101.996365005871
102.070401671555
101.71945042058
101.809052202566
102.135632960771
102.005405031262
101.594162998544
101.627151650411
101.062506218971
100.782595508505
100.511536218415
99.6574155761149
98.9159168409628
97.7703812438574
96.91385865688
95.9630881163141
94.5206073577398
92.8092706206981
90.3052680238067
87.5386389585053
84.2562457373669
82.1546908732513
78.5216991171055
74.6858530846281
71.8846760955445
68.8192030522878
65.9837522284479
63.1161589323173
60.2583890218553
57.5572504690853
56.4456342679114
54.9793774073894
53.5717946354643
51.8688454598759
50.8189100645785
50.1353575839028
50.1735592675133
52.3134110231582
53.4805575313594
53.7081607976337
59.9916481267686
61.9669746284591
66.2945151735263
70.484622566301
72.3514357106073
73.4706315847306
75.3057858165186
74.3897362525107
75.097104240932
78.9149132982066
80.7246254256077
81.6353374203653
80.7624862355434
81.7891643850424
83.4234099993579
83.3569658548181
83.8409832979104
86.1044273610161
87.1048404721507
86.6858094411698
87.6167859216294
88.7844798244039
89.665073683397
89.1128917769756
86.5021674896162
88.0050984723539
91.3086333375791
91.0316531466528
90.1846510245927
91.2982918730111
92.6282409098287
92.8454131262492
92.7820394311593
91.6756023033321
91.3469679770467
92.8591933935624
93.9771509426868
94.0005111385303
93.7380665064364
94.0100415464186
93.7280230090029
94.1924633750621
94.8088372933583
94.5456991862453
93.9300341209856
94.1576253582378
94.2230461147576
94.520887978104
94.3808372421975
94.7117099708264
95.0605347971062
95.4410140543595
95.66255245259
96.0517746683574
96.3408063589661
96.4456753894232
96.4717859565365
96.5909804141761
96.6736522125573
96.8222123920492
96.8156490606322
96.6857150696263
96.1484400683889
95.0807386426813
93.6225513694422
91.5578680121313
91.3299536675405
92.7571869828247
93.6624021468656
93.8747213357236
94.9228448358667
95.4330705375458
96.3045247924962
96.6719063734525
95.8783494611072
95.0727963582223
95.6168870406848
96.0512946506775
97.4585112117137
97.0054987482309
97.2190041469296
97.4992755348446
97.3161408503267
97.2276522040489
96.5420780090587
95.8569653450322
96.8511152228276
97.7562213060795
97.5312061890122
97.7439222202876
97.5977448450888
97.996747495871
97.4590978018914
97.4228662117402
97.1178286206907
96.9789071685251
97.259622249225
96.7749123492159
97.6030072371764
97.8155268759966
98.1457677616808
97.7824463015704
96.0954156834184
94.4065048918454
92.8927939957769
92.6500897823546
93.8025315700792
95.0284616181022
96.1405569210951
97.7151635996395
98.8635875580944
99.0907170947006
99.0503928578526
98.4344889169463
98.7674833304597
99.1918722953666
99.1519985401183
98.9566897398547
98.3567130893492
97.73935133169
96.8019826246301
95.572948708023
95.390099381138
94.8589793423827
94.5721510349268
93.5114409901663
92.9810442324373
92.2636192501455
91.5715566988042
89.9550074676486
89.5140719055871
88.8880172272672
88.4394022113754
87.9561513483341
87.3092137567304
87.7359466375885
88.7585678021461
89.7943723816942
90.6588041785507
91.1980837594303
90.9291360416192
91.6623620312966
92.7864015147576
94.0466183003782
94.7132600037934
95.5153789942631
96.1959539422058
96.5584546315702
96.8116719807612
96.4047092909814
96.2062149429615
95.3146959162829
94.3119461131193
92.4651017345213
88.6012219148073
83.7523242836871
79.7181079237591
78.2153848574747
79.6561705365015
82.6207793253168
84.6880754425574
86.5281777541757
87.7565064921764
88.8514344083526
89.7678703489578
90.5331843523929
90.8020412994241
90.910813312858
91.3304887215717
91.7391658166303
92.073255057107
91.7729131336511
91.3456344189344
90.4698763740882
89.7053916364744
89.0930860961569
88.7492760079665
88.6772188624108
89.1925685159593
90.0916718202314
91.1336465849662
92.4751515465718
93.965965922722
95.0526786621765
95.5421329111077
95.7975356697783
95.9898561299235
96.0627405327795
96.0041899087815
95.7493105610999
95.37495667451
94.7257248060525
93.7678163802148
92.8801183429934
92.6980728517552
93.313106029727
94.1203379691187
94.8735245505057
95.3162181404175
95.4529033425489
95.2753846236902
94.8277857677542
94.1898661482708
93.4131857434701
92.6072597840208
91.9255450139473
91.3524121505286
90.8481350385935
90.3510327224352
89.770675494885
89.0116347293471
88.1210108561272
87.2681463872096
86.4183544371229
85.3903311488914
83.9685669837245
82.1756388298753
80.2167949275697
78.3330230089927
76.6245390105839
75.1349245435292
73.8077624429096
72.496211342927
71.1541592524732
69.7543648258477
68.3324449107963
66.8952861091536
65.4978398958844
64.1366610122417
62.8338151548316
61.5072552473072
60.1233088015273
58.6669545172413
57.1355701916194
55.5992403541545
54.2279377568154
53.1984555793859
52.6091391056858
52.3564701451168
52.208031041057
51.9328983280503
51.4115381279379
50.6778836733046
49.8072507277749
48.8534194367798
47.8543959461576
46.8895226967977
46.0815311520805
45.524446175629
45.304394776543
45.481609385723
46.0912052887152
47.1477741319423
48.6483719527318
50.5270971641886
52.6026398510895
54.6452201395992
56.5860616850099
58.5178916314915
60.5444797626591
62.6252358212926
64.6629136169676
66.609435548604
68.4195278315375
70.0914509120985
71.6559552383483
73.1205911435174
74.5192848118235
75.8588581799355
77.1438318681172
78.3641195202716
79.5360172597215
80.7081091213692
81.8686781505882
82.9683482988298
83.951555908597
84.7335244674062
85.2061187502107
85.270662882202
84.9193604572209
84.2698968616313
83.5316468840371
82.9521396119272
82.839151577005
83.430985569765
84.6285734380505
85.994305551116
87.1321880878102
87.9537165912193
88.514809302408
88.8045573721232
88.7917551109905
88.546318889078
88.1314371498175
87.5878061267295
86.9281270249096
86.1185328539769
85.1273260758108
83.9352097316842
82.572834178879
81.1559442720482
79.7640713428338
78.4020481687185
77.0293675642645
75.6547164665359
74.2160424189066
72.6156736558974
70.7794129843856
68.6673102393837
66.3312949620103
63.941176585154
61.7294717765678
59.8997254880387
58.6776457524339
58.3160986641153
58.8454262915866
59.7785818010567
60.2231914027768
59.5586676311617
57.923547853865
55.829996080389
53.6757747071613
51.6817303311509
49.9532047089149
48.5698717840671
47.5931036727962
46.9975210558613
46.7166240342379
46.6654378348366
46.7317299007908
46.8679003823149
47.0819569405241
47.50153475923
48.333153127782
49.6487623544749
51.3768487782605
53.3118847790684
55.2756199118014
57.1652437793907
58.9595459909144
60.6871684430751
62.3131683465883
63.8369682783102
65.2732388030517
66.5415843032697
67.5715239141906
68.2849527038156
68.6454908886728
68.6837977110096
68.436775207765
67.9742500827088
67.4540867928925
67.0655515264812
66.9141983822345
67.0599499858937
67.4898204176857
68.0953468527868
68.8076659351618
69.5732869613907
70.4126239139977
71.3673675744558
72.3098638718991
72.7593972381785
71.597760317277
67.7193706034938
61.5498642265657
55.4401636963553
52.1661177286127
52.895539850444
56.221173881853
59.9265284026345
63.1358819069021
65.8385533999503
68.0704300791156
69.9137766721689
71.454924909815
72.7582198671589
73.8442603091343
74.6977379246408
75.358449970088
75.8200031566744
76.0672211327195
76.2130523385325
76.3200734081103
76.4119225520701
76.4892878752906
76.4569450590007
76.2233007938046
75.8091710772656
75.2979284625557
74.8064171058197
74.4162293157869
74.2279328326309
74.2311334044945
74.3272950227773
74.4213891818763
74.3107494119243
73.8682117732293
73.3309191394957
73.1153834241206
73.3200752906311
73.7166729653377
74.1587520949523
74.6558109480442
75.312261172714
76.1685501188744
77.1219786557723
78.0535126291368
78.9022245930475
79.6251336190572
80.2191756770298
80.6789392234545
81.0502459424567
81.4339110913581
81.7957715975345
82.1165649076758
82.4590793685937
82.8616507254568
83.2837276016509
83.6807551268741
84.0714941940198
84.3712412621071
84.5246903950277
84.5454691062798
84.4228397453872
84.075269736491
83.4124251605433
82.5066908753635
81.6360518339665
80.9912222489246
80.6310562218771
80.522055954275
80.4883876467396
80.4614975158309
80.5274546648054
80.6276580785313
80.6457367129763
80.4468988716062
79.8431716009196
78.5839841297415
76.5669634101738
73.9589343364288
71.0955696961147
68.5982312760021
67.3571250419654
67.786822514783
69.5101432467131
71.7760067153225
73.9439131381155
75.7111724287239
77.0528954405873
77.9884790752516
78.5810779990226
78.9263077375045
79.0637250642136
79.1128747403588
79.1526583749727
79.1257992406235
79.0777154409035
79.0379416411271
79.0691112290076
79.2349604337925
79.5308743372685
79.9012614775702
80.326033449224
80.7338983824918
81.0666442380288
81.3781953570677
81.6837806539515
81.8624642999318
81.910556847645
81.9641083109257
82.0547347884888
82.0872031493791
82.0694942047148
81.9764167409275
81.8702633399451
81.8309047783935
81.7561936684731
81.701391558887
81.7397943354698
81.9098220290736
82.3480825596819
82.7345898114783
82.120397722021
80.2996188465386
78.710468266987
78.6257453810737
79.9308939718527
81.7118188818474
83.4162332224795
84.8874997721868
86.0599612160526
86.9584978761664
87.6200239012312
88.0760861725472
88.4327520959993
88.8597235064614
89.3897645033347
89.995252540988
90.7187950335371
91.4425685406874
91.9787933257348
92.3900769333612
92.7731846354114
93.1071420720195
93.4070918095849
93.7003516356421
93.9428912970826
93.9580801379534
93.8695688124975
93.5834241613456
92.9028516318152
91.6233092078935
89.241284017992
85.1774320151632
79.445673313698
72.7586508634479
66.1149290701905
60.0830578504521
54.3527519984871
48.5868121134291
43.2138475200125
39.2583138718691
37.8289058070845
38.9003716193752
41.7987308459988
45.8801822300318
50.4137135541075
54.2994396170763
57.0457629634033
58.8628708086675
60.1994415769771
61.4606586463809
62.7779484453117
64.3244569406957
66.0853269032472
67.7951725218233
69.532612367053
70.9577691222191
71.9169142976597
72.7707352884997
73.6836336897331
74.3542831971231
74.7470421801531
74.8005206479213
74.7985135887789
74.9540426404204
75.3778346111836
76.0417154714544
77.1625794409126
77.8240454980368
77.8287055170795
77.6381157183034
78.661549726246
79.430678794232
78.982137598805
79.4672891476102
79.82638255325
80.1839973308852
80.4155151848182
80.3567687691653
80.1767342871928
80.4214255215564
