1798
3999.43349933624
650.420452594757
1
128
4
101.257615377428
101.327018499253
101.359480007969
101.271119042097
101.259848379442
101.219909718487
101.087190094556
101.102469941035
101.158197102061
101.125364249075
101.138622860025
101.136919158512
100.983087597686
101.085644538272
101.186150427786
101.166447161098
101.218951738195
101.247457503719
101.214285010712
101.159440315971
101.097959063873
101.087296781661
101.136407398645
101.128633927602
101.094093192325
101.099306340432
101.179797849893
101.277552812531
101.155737890558
101.095237831961
101.146059197668
101.042428387525
100.971147282299
101.036753139194
101.08703153276
101.193988305582
101.186702254975
101.091240067167
101.056033897248
101.199248205324
101.128254542979
101.033005394843
101.072953355689
101.100548565613
101.203696360705
101.267082388463
101.220059454284
101.070883560279
100.972933509321
100.954755895509
101.066175683139
101.21931738172
101.21252337981
101.251737935229
101.171153855155
101.104114382009
101.029751995403
101.092479886781
101.274063561304
101.061869301695
101.033347811948
101.005402920105
101.025643784116
101.259375294334
101.157967865859
101.007813297541
101.159488121108
101.089697594786
100.998310133202
101.182397607064
100.930529728545
100.980374582226
101.149592210454
101.210152737273
101.127162417014
101.033917714761
100.687767823284
100.84848074293
101.31369756723
101.238890085597
101.170287901981
101.141774165138
101.111035975457
101.061166759829
100.969180569696
101.004235386014
101.036807680416
101.023177203947
101.030677018391
101.142792366805
101.1240023991
101.076866761701
101.192919443203
101.091879225833
100.971235916315
101.121079154182
100.862077675418
100.959240052721
101.303837427845
101.179297859185
101.13125860021
101.022814396486
101.066259128717
101.067009944872
100.871703311867
101.064328575041
101.149253033257
100.96446385548
101.000374557206
101.091065933577
101.104822751655
101.171413363574
101.289135281276
101.204613225452
101.196063303942
101.162011621031
101.025198708422
101.052849828195
101.098965009074
101.117960029083
101.10815675951
100.961861133532
100.87493281383
100.862454383596
100.980546512152
101.051418466946
101.034357820248
101.238930737394
101.159658472749
100.944032449124
100.875954900731
100.96614087862
101.027919588012
101.03290743022
100.934095775371
100.840221130254
101.523605734262
101.324975210158
101.060364458833
101.017506157623
101.107555802878
101.038694352288
101.017091827463
101.033382725506
100.945308033024
101.014009314544
100.934081752625
100.74727141507
101.00907126432
101.16782303454
101.078158264669
100.969711556208
100.928721450852
101.028218391126
101.133959115517
101.116528568875
101.149244477144
101.100761092894
101.035772058358
101.03566602467
100.994658778985
101.028663180947
101.002664983367
100.900707820054
100.916219204275
100.907703573807
101.155953058928
101.126661338618
101.058795544269
101.055659581216
101.069785230767
100.907278210259
100.756506099844
100.995010694758
100.790621730277
100.910673737378
101.24391201851
101.02762858764
100.844298243475
100.82045246427
100.846360221969
101.033385173837
101.013182521984
100.889924260393
100.737802351319
100.455016842719
100.388189560164
100.694319606833
101.096967822754
101.075852362796
100.880679103735
100.668375075127
100.584281559867
100.57925418773
100.681605350686
100.859183243238
100.706880963869
100.418411665082
100.591643311443
100.685079413151
100.662876186354
100.668956416382
100.624042478389
100.5306086268
100.546513731881
100.500168668166
100.575504850461
100.637203210124
100.650910251298
100.709908586063
100.674077642963
100.650119314325
100.721466393175
100.665733609427
100.645475743214
100.692184190029
100.794175956313
100.83182340303
100.668644627023
100.676254915901
100.636370366346
100.608569360997
100.741872649818
100.693498162231
100.67877576743
100.550932018432
100.517977629238
100.778045203208
100.87244122798
100.549618345495
100.188040871327
100.348347208402
100.492234463203
100.459425901129
100.585163450919
100.65693693112
100.635570238087
100.551912169876
100.528354908284
100.401622555494
100.240051832001
100.272044469108
100.297178291655
100.418636858716
100.451685575986
100.291499663971
100.365610096529
100.449376477561
100.388311317753
100.43977911262
100.439275311421
100.45840215016
100.496634535141
100.42532218658
100.447134330611
100.494893669562
100.427819015877
100.259647384682
100.26808154707
100.427846082179
100.424682362894
100.264601453221
100.173812677526
100.04393593164
100.041396965524
100.390226237871
100.56927021533
100.336609732693
100.18633878127
100.254855329556
100.373311095412
100.486390576489
100.491885583376
100.402085488835
100.381719122534
100.310365770579
100.159613161768
100.1307706358
100.345646477917
100.416993295177
100.26084060789
100.155945555911
100.251642289072
100.255121839423
100.212344673875
100.263690086931
100.279970872594
100.272207009576
100.470923994056
100.525329169702
100.25368142402
100.135721886321
100.346485893546
100.291716054551
100.074936965284
100.171565373191
100.333039026112
100.22788498989
99.9204071146212
99.9242530056607
100.148874905019
100.242773315815
100.206038436816
100.008830723326
99.9508594749091
100.020418586672
99.9687384870367
100.022069836387
100.086968305604
100.030611029449
100.135000840199
100.108823497449
99.9934292351519
99.9623050802707
99.9956386926226
99.9032403747368
99.922030225361
100.031469742982
100.228770261326
100.322972898657
100.289991422535
100.220249855012
100.104734264415
100.135226550022
100.15887301818
100.209992371619
100.328864036273
100.353684730612
100.349153129169
100.239906131458
99.9981610198122
99.9772843438541
100.14527132441
100.220253586361
100.198518852236
100.17299479764
100.219758084732
100.213858317151
100.27896945234
100.313813082088
100.251194834216
100.257502070372
100.249908947097
100.214495759646
100.153744653175
100.129419216915
100.240800424293
100.277713872496
100.104784780845
100.095488492165
100.236961926168
100.194481340745
100.152223219757
100.136901458377
100.122018676082
100.120724422977
100.183978121141
100.173743984757
100.097799566389
100.121196351793
100.221968287804
100.274309953165
100.209106956059
100.215856840922
100.261838393066
100.211293377775
100.203422873458
100.214075284494
100.17884061629
100.165797697325
100.254006232727
100.261374106963
100.248267395064
100.204398252113
100.102049234315
100.162777318272
100.29789322458
100.130726467567
99.9992528263193
100.096985025806
100.229366100209
100.309522843739
100.291494963353
100.243406931277
100.183967164468
100.136099993705
100.261411542893
100.292633743784
100.241424147869
100.291462702904
100.308459619482
100.245827809515
100.183571718796
100.119947294797
100.164626777277
100.245537043556
100.244299757903
100.222529235328
100.213971258313
100.295267864193
100.395548187405
100.348115784088
100.301461094488
100.299125127579
100.254747296317
100.21298936012
100.170233214572
100.229561811286
100.309915112188
100.226472045776
100.133022257436
100.062914438531
100.098639343023
100.255666845194
100.332333616099
100.262280569249
100.350988167509
100.416843962114
100.270551770715
100.250115637555
100.323292521243
100.3375385927
100.319237521495
100.236910836053
100.234564436667
100.383304421021
100.422379358262
100.359128483164
100.325047530479
100.353116439996
100.422806490794
100.404653913275
100.327340199061
100.311527436792
100.281857058117
100.226624562006
100.250662019352
100.345763821658
100.432896025226
100.421526931453
100.372024369921
100.317353778705
100.329388548114
100.443873388298
100.440693234093
100.323902127729
100.333870080442
100.412084199741
100.463673982469
100.46451926323
100.418296326056
100.413053202271
100.398040089266
100.39493791143
100.41049871838
100.385609293964
100.371893730051
100.356083130852
100.340528961029
100.451129971974
100.572911551116
100.547114227821
100.471468895479
100.417444097699
100.404492684855
100.338909221554
100.263483873491
100.319393657241
100.374727049266
100.335833013517
100.284973642834
100.305798628806
100.314007872235
100.28229918615
100.380257789227
100.476366858949
100.445748667989
100.339728449845
100.285616683696
100.293465071579
100.235290838697
100.205896812421
100.314340941086
100.35257389284
100.264048276316
100.235953737558
100.263551344661
100.343779024901
100.423252124191
100.354075871162
100.307809433377
100.29739575029
100.259687272069
100.280582925045
100.269326967002
100.220231755955
100.22410922261
100.252357703651
100.263920603201
100.213574359592
100.126675266912
100.078276851916
100.150988684842
100.225993397301
100.209255054728
100.20078097296
100.219410016361
100.248941207377
100.300327584796
100.343458733815
100.365589133381
100.349213488689
100.362460666909
100.375377336517
100.36459508171
100.436801709015
100.482268818174
100.400215084896
100.401060203118
100.459302347533
100.38804787261
100.353184459221
100.400981144765
100.429175592419
100.479363892588
100.449033483275
100.340191166553
100.267443362041
100.193667268629
100.148086261476
100.115992808274
100.086367459338
100.148135544967
100.207453582732
100.17515411997
100.107306307615
100.095894299431
100.081037547604
99.9819333355998
99.8909810786073
99.86296952883
99.854711704403
99.8247894954077
99.6883875774808
99.5485940929238
99.5366194538162
99.494778438706
99.3973782425745
99.3393474871249
99.2651262775619
99.0805528787484
98.8548441022326
98.6761117207107
98.5336884200567
98.4198867817513
98.2295582043238
98.0397955861926
97.9425468117692
97.8874483195269
97.9456675535765
97.9992475957327
97.9474453352892
97.8626551964208
97.7503044760503
97.6533902936946
97.4864621252884
97.2720749537623
97.0657086546109
96.8442279065022
96.644917968019
96.4163896239888
96.148823097713
95.8937320851399
95.719044770921
95.6820096378083
95.7835963650507
95.9391159524669
96.1313300443792
96.489812356211
96.9933030712028
97.4665549204596
97.8764448439153
98.1755837613952
98.2962415252719
98.4319758503085
98.5463202738009
98.5658479699142
98.5968086648971
98.6506208452509
98.6249821350664
98.5771431489394
98.6516412024007
98.7341851822606
98.7640382251822
98.8354550497219
98.8620877774785
98.8346023514632
98.9295272432877
99.0802397194328
99.1051706765904
99.0765984624554
99.0935175077398
99.0805293454566
98.9877028539258
98.9633137936681
98.9569909667012
98.8330730648304
98.6323319663226
98.4430741039085
98.2317174510308
97.9144484678629
97.6540806381278
97.5790433961839
97.5951521695724
97.727151817767
98.0812065456886
98.5624214028681
99.0570445888542
99.5128457193069
99.8585893008165
100.076053338443
100.168636673836
100.189581750061
100.162737060154
100.184995475269
100.224824158477
100.194107451574
100.22153439467
100.274230148676
100.254571973804
100.225222420691
100.236845417556
100.29517977973
100.31126602157
100.29449372943
100.274961659951
100.267091722108
100.292215249726
100.29869983729
100.321108618173
100.376983869995
100.402995597434
100.402584002457
100.387806255876
100.346735592033
100.333750307123
100.35678499489
100.391719132805
100.424634987757
100.435132613004
100.458902799522
100.468696483676
100.455469909343
100.482558721529
100.466451079752
100.449738369737
100.462353087598
100.473100352936
100.521135236137
100.535696720139
100.489019184501
100.453644932532
100.47691372023
100.497159747085
100.484512287015
100.470576955669
100.472109137335
100.525986611455
100.501756380144
100.460461797923
100.483681582112
100.487636443266
100.505372764674
100.515231037682
100.490425602061
100.488314991183
100.439864380723
100.436679403789
100.460921975977
100.456621055113
100.504661477086
100.513128207428
100.521780061367
100.558030664826
100.531762334341
100.479333427671
100.483433893455
100.529559950505
100.563970271697
100.565041643487
100.499125882959
100.461585876864
100.522748931643
100.569855754112
100.50844772978
100.449147529273
100.494769403986
100.567187742251
100.57404138088
100.566056456409
100.572143741501
100.537078372858
100.510703143421
100.510059798781
100.537063918192
100.540977569211
100.514882790785
100.50820696958
100.521593435117
100.530701072699
100.528878506219
100.525470170916
100.518350956571
100.515342932346
100.496953545424
100.471128699541
100.503781642647
100.549594535337
100.561008916199
100.545632302268
100.518426096339
100.535942673095
100.526306982104
100.503707662387
100.488802240626
100.479346447229
100.458755181444
100.508652617273
100.563700288395
100.54211866897
100.545738075759
100.541280058433
100.578780421861
100.626277313472
100.574343222253
100.490027272377
100.463019546185
100.524531866593
100.609444180563
100.613954125496
100.547215849111
100.460484035787
100.452013826517
100.553318953178
100.600586616326
100.623523829051
100.619864632073
100.570616044294
100.611904693422
100.704557142919
100.655975346835
100.508088450842
100.483686075379
100.591523892381
100.641848348542
100.675903012872
100.678747226172
100.58829149459
100.547000911756
100.591565573578
100.59580423713
100.518898082388
100.488660212955
100.549470793378
100.582449501846
100.587138061563
100.585817086239
100.553357205858
100.577783412662
100.565944914426
100.602721758622
100.665940128676
100.612367552639
100.452239396196
100.453761044763
100.569420095185
100.633504546393
100.63703902738
100.599090921137
100.559465498237
100.574236575807
100.602174467944
100.597015468958
100.564082453033
100.551552185287
100.578942696493
100.624435312584
100.669152319619
100.621431697436
100.564669164004
100.603142793491
100.620941580148
100.578639307489
100.555569461474
100.565448466359
100.549919929241
100.504558208754
100.511861689267
100.545181051058
100.57529441804
100.501454555633
100.436379656598
100.508086026848
100.562980128965
100.59077925855
100.546209424141
100.530795194113
100.610424381704
100.640092214186
100.61914048268
100.60238556375
100.587629257562
100.584594302037
100.566941093927
100.559011076714
100.614863841534
100.593412385283
100.438824594145
100.477147059473
100.597995212228
100.546585317737
100.513390663066
100.630128383141
100.680101762546
100.682123293751
100.67019248271
100.632805117295
100.714177935766
100.731694578426
100.630580265253
100.575017512373
100.601756178314
100.679456382282
100.702751637918
100.651538119747
100.559320252211
100.559244823127
100.66300326509
100.665433522385
100.58271373825
100.581186144911
100.631583854668
100.606497597278
100.547401251895
100.559315216394
100.57912447484
100.597795875941
100.563541702976
100.534757448452
100.569741335425
100.591890249394
100.605089844779
100.599947205888
100.56329868681
100.525671784882
100.499469393178
100.558571385511
100.602059343706
100.558324202178
100.543710723075
100.598120916535
100.57344172745
100.471685114347
100.454440661977
100.516883714949
100.549694927456
100.492443122163
100.444995957777
100.461802853264
100.493199659577
100.523609309195
100.539878342759
100.499508448742
100.472429398922
100.466527085926
100.489572340484
100.564884343624
100.573636356983
100.558564114941
100.574718846099
100.546496729505
100.474342290028
100.541405546426
100.58297631449
100.561278353656
100.474460377218
100.393384287909
100.446555857203
100.504166907872
100.51688657314
100.506111998765
100.553505064256
100.575403807789
100.562620080762
100.505821562466
100.491495260217
100.538834017682
100.555686370372
100.47367471301
100.403819445858
100.450061465003
100.480712030394
100.498159420518
100.438249558125
100.474914600886
100.535140313655
100.563045349152
100.589006790046
100.631654630182
100.608312292584
100.533088058573
100.541115976676
100.566412702688
100.579205368353
100.564351010873
100.517130692781
100.528021697542
100.60989150388
100.624568567557
100.595066197732
100.562912249537
100.61615045751
100.599514778561
100.501271287893
100.462259695509
100.459395802224
100.57760253332
100.623452173433
100.589046788392
100.539716482409
100.483795003075
100.554132702883
100.665237451131
100.45723286021
100.53340037085
100.819290148961
100.718824490958
100.728225659996
100.763782205238
100.67383771483
100.62647458668
100.682309293322
100.686833009038
100.610272101576
100.558244483793
100.673719302065
100.83655643428
100.695692720615
100.525709624157
100.536265503609
100.536304037211
100.635780953625
100.856682326761
100.960062022697
100.919240412387
100.968235414314
100.704252867947
100.592980452826
100.692584496807
100.607817193693
100.634953263245
100.680337985368
100.730676987618
101.187752409329
101.017218843886
100.775410670122
100.687688997833
100.543530557046
100.687209557378
100.851051094875
100.827694709249
100.818749107243
100.766151444713
100.945307576455
101.169294144474
101.257195440615
101.056639501027
100.644988370815
100.674639894479
100.764587946963
100.680967878844
101.030434823729
101.34045293806
101.10739893229
100.740694623334
100.580974922356
100.679351489886
100.458745454988
100.93868017475
100.991734841147
100.874248230092
100.920880962978
100.661693183005
100.714007262262
100.621051051262
100.618072687968
100.551792410322
100.613211490039
100.781149785066
100.805804004581
100.99213201261
100.93230967875
100.710323602768
100.848536500791
100.718941988631
100.523525307866
100.649438178623
100.616857205614
100.358336329129
100.485800970953
100.574898725522
100.465963929218
100.529928383652
100.55000568451
100.521519303523
100.572549609878
100.647960884738
100.580373228571
100.488858988279
100.454170907022
100.501317663434
100.566896960225
100.452915732551
100.294297891298
100.426884886557
100.638295917804
100.603555090087
100.619471392099
100.54231237665
100.493135689349
100.540510235103
100.623489748618
100.424093822783
100.320328039918
100.644559106571
100.708639546275
100.533453124594
100.562267312863
100.692597795736
100.724276578981
100.6312147766
100.724357851911
100.664708417438
100.673414549177
100.757722326383
100.798906157049
100.917565020562
101.126418586058
101.133549795565
101.154147486479
100.92173748848
100.867602817045
100.806789090782
100.834438910496
101.287381398236
101.349788054544
101.058107707369
100.82086186371
100.299636727884
100.384184762499
100.871840682352
100.799873383041
100.56923713113
100.690445676377
100.828100313897
100.890950724423
100.494748449565
100.514812518793
101.031903271895
101.115544935963
100.953107194727
100.786668268265
100.769079306542
100.791820728079
100.706024123772
100.510746313647
100.490458168609
100.838014985211
100.853127996207
100.472292952735
100.203078300575
100.358792576399
100.750629865573
100.928762010852
100.841964338925
100.637579817276
100.798975251105
100.841975735987
100.563041764234
100.543720916121
100.716189864885
100.774662931092
100.684176649928
100.563386287438
100.745844035322
100.855025691836
100.699645076805
100.479792171661
100.300324816658
100.457617961257
100.38711000659
100.172481651271
100.099424968194
100.412535164561
100.732616107354
100.600850097836
100.502665789925
100.442894895535
100.357267416308
100.432642108825
100.486996477812
100.419285475813
100.333318270418
100.396087416093
100.426583900498
100.400173879384
100.380321501803
100.269606859279
100.369070113805
100.509082393579
100.408669192382
100.300656506601
100.353262370545
100.478278344216
100.472179403442
100.362709681784
100.349341245636
100.363696435231
100.272237429134
100.354654512217
100.423303506931
100.399739399433
100.387930910332
100.341472167283
100.356168455063
100.433938495335
100.397367532664
100.388374088191
100.400801554872
100.423529752948
100.414163384926
100.405302486523
100.296370629734
100.201139674907
100.253005927566
100.308501536879
100.315027035079
100.396390668483
100.424354321809
100.374336827134
100.342749752969
100.362435109642
100.325091195548
100.216532463013
100.196098436228
100.176944582594
100.157295339816
100.196735050295
100.176395462284
100.165419092897
100.161776844008
100.134074171005
100.092626057452
100.027613798953
100.024810805477
99.993365971875
99.9675947400282
100.036238112099
100.022366196634
99.9647042875158
99.9956688150064
100.102429166064
100.094044820474
99.9845515402817
99.9510823623681
99.979818483021
99.9391978472769
99.9719707139056
99.9852878221169
99.8946371645099
99.8781907661123
99.880489529926
99.8697033356483
99.8403938729609
99.8164781106047
99.9179598170882
99.9324256272064
99.8542887328815
99.8294163786689
99.8452583404026
99.7941960775214
99.7414459356129
99.7108927993538
99.7058229678608
99.6084525285308
99.679849049167
99.6420445200172
99.5718783820102
99.4980289348159
99.3749150818584
99.2793194714575
99.2419802357732
99.1039222138607
99.0069498980509
98.8534005322135
98.634949595832
98.3901983316332
98.1625549357509
97.8240931711804
97.3803170802914
96.8255995179721
96.1270597877198
95.2921570089577
94.2417183645127
93.1117393638507
92.0186908421856
90.5574808893122
89.2566041797726
87.8822635019688
86.4575206399415
84.9488521588026
83.3312164578026
81.6237963855303
80.1144042335287
78.980268189278
77.8382539153863
76.8081618367822
75.8174258379511
75.332889956753
75.2350055722158
75.954694276259
77.9264599797343
79.0712435696698
80.2069781662872
83.989836349625
85.2578473780273
87.3702175985408
89.1378053731379
89.7761912709306
90.3171720002854
90.9874567819935
90.8162618393979
91.5392309174979
93.0782791990517
93.5287837287615
93.5176023421496
93.3339640313953
93.8261020036257
94.3827957267189
94.3954847590053
94.7832586004358
95.4754572785864
95.6083468921106
95.5687885477338
95.9794948177265
96.2991642784626
96.4407377991037
96.2408763167508
95.7117491476174
96.4907501490494
97.2711823478819
97.059684979625
96.9566830926839
97.3116420232305
97.5335211422315
97.5281046002716
97.4296151333682
97.214423180411
97.3193751649595
97.8244463278388
98.0037892200274
97.8663774993013
97.8146259699004
97.8854631145553
97.9271474561087
98.0600118500999
98.0952928709255
97.922983372004
97.8378386119532
97.9064328440321
97.9250445019444
97.9348557760035
98.0042574089819
98.1405795282552
98.2315526415039
98.308076054429
98.4239457794934
98.5435132570699
98.5845547466192
98.594892376826
98.6263320601948
98.6423342269867
98.6444177062551
98.6687627059186
98.6249581474623
98.4959220040808
98.2704492897471
97.9437011210635
97.5227152811568
97.124265894866
97.2452552070173
97.7536512182355
97.9856097220833
98.1083193412502
98.4001781930468
98.5780823744259
98.7302184152264
98.7618882965384
98.5796557328976
98.5506444619954
98.8901799952694
98.9587013112216
99.0414798099571
98.9935026877919
99.0202510002814
99.0496259636983
99.0151927544894
98.9757039218132
98.918505175571
98.9175648182695
99.1734545459616
99.2444110578631
99.1483890895892
99.154413378788
99.1709414189871
99.1577269336739
99.0767384036514
99.0349296143372
98.9685648539073
98.9674618513036
99.1356740000912
99.1310265438231
99.1908017678383
99.1993773886884
99.0980381953524
98.9324851091505
98.5604660591472
98.0015463116913
97.5889150230628
97.6328723642772
97.9640252812084
98.3953401878363
98.7829230418929
99.1967919689808
99.4044198104509
99.3285309855284
99.2953740042151
99.3587700890404
99.4101815332417
99.3466153386799
99.2184981113202
99.1074477127496
98.9232015023082
98.6767138493001
98.4008150902605
98.1359955655935
98.0302542740569
97.8908787647115
97.6773745355151
97.4196104435062
97.2685622556259
97.121061339025
96.854238543729
96.4665773921036
96.2079346988403
96.0480019533728
95.8657744992463
95.7035890475732
95.6441215836293
95.8491522200432
96.2183002181757
96.4985132783199
96.7614494316558
96.9532257460003
97.006662161535
97.3372605096417
97.7682153586366
98.0262213973328
98.2183582443163
98.4377915287185
98.566987524108
98.594054495448
98.5605776704964
98.4079324149196
98.2184805566564
97.9821762643941
97.5007130983469
96.5905447256242
95.190901485358
93.5675754056268
92.3834478197169
92.2243899842405
93.1691258979787
94.402385463193
95.177135845141
95.7903266210622
96.2025430714149
96.4420084400835
96.6872904964511
96.8073691474834
96.7910964639601
96.8260840098265
96.9550075686792
97.0238951170882
97.012649920619
96.9234001715467
96.7728888919493
96.5458553541024
96.3326948594634
96.2047060790775
96.1226242033721
96.1507967567048
96.400424410167
96.7822469345524
97.228557924279
97.7096039741244
98.0603656265044
98.2353105395048
98.2927336019151
98.3177899550265
98.362860883062
98.3694126824707
98.3282723506719
98.2185007983428
98.0666094711227
97.8614915320602
97.6205752907868
97.4687833180841
97.50109473972
97.6943219388
97.9135659975058
98.0701735760692
98.145829829255
98.1237748746898
98.0096453176025
97.8475099248361
97.6563855054658
97.4267022284737
97.1883852860775
96.9837615413424
96.8084742532705
96.6249867692774
96.4168020386781
96.1867959792932
95.9022574923806
95.5718615823036
95.2684280994152
94.9440462473626
94.5172976095624
93.9570548528162
93.2425175244396
92.4647781915903
91.7192285573366
91.0456727098332
90.4505510702086
89.8731780425214
89.2711360394161
88.6121769896883
87.8943637153254
87.1762562215556
86.4348124329568
85.6579834001985
84.8579641791884
84.0667614738729
83.2756906275586
82.4083569135345
81.4439954333917
80.3991246552865
79.3188701969161
78.3800059523152
77.7036765622058
77.2798062363761
77.0245832852966
76.7987021877185
76.4808933000197
76.0021874254036
75.3025421390367
74.4508824552855
73.5450219548542
72.6480707500793
71.779021182731
71.0461373147207
70.631450884383
70.5849350374847
70.9332812038822
71.7490724684499
72.9820230989718
74.5248676564947
76.2769710454254
78.0712305795641
79.6413505162571
81.0272883984828
82.3757148363213
83.7040893938504
84.9576632901523
86.1189150697504
87.1838337571085
88.1128189428611
88.9381338462474
89.7053441097446
90.3961015673954
90.9845349568606
91.5520758260004
92.117787714388
92.6148199948276
93.0775247926227
93.5501429558812
93.9961001653925
94.3667146936736
94.6675252558691
94.8730010135329
94.9471158152263
94.8926183415539
94.7169620174169
94.4269116059646
94.1411561753863
94.0092942878396
94.0818424568594
94.3986297877062
94.9080305516109
95.418062150284
95.7899950649557
96.010478982498
96.1280558953722
96.1707695968377
96.1267651651985
95.9854208773832
95.7714350124036
95.5500495576241
95.3167654848163
95.0124167789182
94.6115754000818
94.1254075793431
93.5895161548511
93.0358196762213
92.4835327472629
91.9252039358131
91.3474948885308
90.7123130730293
89.9933423610616
89.209326880598
88.2878133662418
87.1933886476266
85.9799450003374
84.6981266842853
83.4405219754184
82.401150344564
81.7851432771525
81.6913816857302
82.1018816571087
82.645127514208
82.72729418373
82.0896606504854
80.832411684221
79.2363182924438
77.6096509739898
76.0484921877168
74.6346021981625
73.5187392158276
72.7459276630178
72.2749155152445
72.0915635637797
72.1434082885625
72.2622473218484
72.4387112537856
72.7780768305076
73.3399521955972
74.2538091911979
75.5769640086739
77.2115046949137
78.8834889770725
80.3872949415502
81.7237483242948
82.9007666544664
83.9785938465714
84.9832455433064
85.8435040767676
86.5916643045467
87.2413360441164
87.7207047072576
88.0041227997655
88.1066497690427
88.0567192842864
87.8986111195619
87.6856539212057
87.4748342630165
87.3156260635355
87.2646516428804
87.3950361715176
87.692517030529
88.0754054961909
88.4810604954011
88.8755060242756
89.2449295215739
89.5934218062961
89.8658029702717
89.7744930304159
88.7788635653716
86.403826823788
82.7757009124485
79.0321919376602
77.2444231062915
78.6180090498154
81.5866066026285
84.2373070566267
86.1983037033065
87.6435051430677
88.6972329067477
89.5073372450133
90.1639008031859
90.6864999506082
91.1221370793304
91.4686798550526
91.7026427128778
91.8484851214806
91.9194028191146
91.9411790058659
91.9509210172902
91.9725780539975
91.9934390939979
91.9604481365066
91.8419191669221
91.654764985353
91.4283357334452
91.1760623407963
90.9720391720312
90.9232946166563
90.9652311905365
90.9934560246726
91.0122585373385
90.9350801121197
90.7101798186359
90.4760042084509
90.4316076383104
90.6139498016945
90.8498241856271
91.0795438851034
91.3790121764745
91.7510885512953
92.1311776851726
92.4759739000053
92.8406577179616
93.2232075460928
93.5018142155785
93.6900069277398
93.8791642432898
94.0652199314562
94.2160932842618
94.3381476130203
94.4566169947325
94.6132875498032
94.752620942602
94.8736024630673
95.033828834468
95.1682229844181
95.2241996893061
95.2304419197861
95.2062383243753
95.1056010135124
94.890120375535
94.6150205557083
94.2833657529538
93.9253125104953
93.708494446804
93.6897475580653
93.7232188702964
93.7092586592639
93.6616534273028
93.650735377307
93.706077826587
93.6843659169052
93.5109545972308
93.1834145944958
92.5613681859215
91.6097870836531
90.4282191123325
89.1721131726461
88.1982975128209
87.9104875441529
88.4320438879213
89.4416921054341
90.5034644187856
91.4142483177604
92.1618413259423
92.7084120974366
92.9969869625897
93.1343872904258
93.2438493713545
93.3096019922371
93.3131044277221
93.302300550107
93.2795640014255
93.2272233621969
93.2112022866218
93.3242553703594
93.4275608860826
93.4975114096182
93.676157734685
93.8791168026339
93.9907612872323
94.1444672720187
94.3252023102451
94.3358844997878
94.2862336047833
94.3504027057375
94.3779214621694
94.3547067280434
94.3713764313824
94.3993832001413
94.489869818412
94.5242540669693
94.4670348969194
94.4152518111999
94.421901052891
94.4575106622939
94.5055290770278
94.6753304765787
94.8137718932274
94.4501570928093
93.6186070233153
93.1027012679877
93.2899607737691
93.9568748330554
94.7487560663821
95.3682103654066
95.7692507720478
96.0382861746654
96.2924617206995
96.5069005136457
96.6402635819081
96.8146294048867
97.0008959496031
97.1144822112396
97.284826879384
97.5236195370003
97.7238863427191
97.9203399593455
98.032175602173
98.0231653531672
98.15688535458
98.2653110965196
98.224916003754
98.225478605861
98.2593161244623
98.249304763311
98.1170096303854
97.8754268285899
97.3415521076622
96.3051918724408
94.7292745670046
92.482418058531
89.6582541118087
86.4447615381822
83.1513351156525
79.5206498510374
74.9919165737347
69.9247790454898
66.1180082920826
65.4637018179509
67.8129335086427
71.7076349806446
75.9944224233322
79.9449905187505
82.6416505730589
84.0258383747029
84.9903525544363
85.8223437596708
86.3888106078865
86.8937671458359
87.6888623874852
88.7484619393764
89.7099731649845
90.3487890293685
91.0534315868245
91.5968531878874
91.8264927428548
92.1370710961204
92.4828657257599
92.5426206517593
92.5258149871543
92.6981732850142
92.5512865817985
92.6069646879886
92.8917018583839
93.255136071457
93.6013509146739
93.6977097932417
93.6175177009188
93.9824025739854
93.9675551338621
93.8352288319083
94.2659981239832
94.6944536916395
94.2822160941685
94.2590441775123
94.9956851202407
94.7969907641656
94.5481335136031
