1798
3999.43349933624
650.420452594757
1
128
4
102.259229253643
102.313813332164
102.148631479505
102.092387087075
102.216480832286
102.203843680779
102.095036901086
102.138758689513
102.191149696125
102.195359315352
102.175382776377
102.141425053637
102.068121878071
102.186716608865
102.209104275675
102.142842977581
102.070585719196
102.07518788171
102.132379359802
102.152544011381
102.058678140882
102.106419398209
102.222923858218
102.136885523814
102.139887523397
102.223380117359
102.167589237224
102.132838485731
102.067176478103
102.070780405512
102.141693422905
102.06362844327
102.045059263775
102.101923326815
101.984590344986
101.937040854745
102.01003669826
101.997397785328
101.89754030547
102.112210140273
102.092139469085
101.907841392219
101.818744319707
101.874536086304
101.942526901094
102.072689911019
102.212251695657
102.108983701511
101.94559532834
101.797892766184
101.914781895928
101.90533724248
101.751583957209
102.012645068966
102.087113109335
102.001388510215
101.909698903286
102.040629672683
102.055046367141
101.710984402494
101.879922407542
101.874997647249
101.863239546457
102.245357800684
102.174222737766
101.938706614694
102.066554776634
101.791762246736
101.755835032261
102.101870137201
101.644982698781
101.892656119027
101.944448987431
101.98969167393
101.919221308883
101.843465826817
101.51112485811
101.870064375181
102.160724993672
101.918795936127
101.98351823743
102.002134499747
101.878652558302
101.793022583949
101.520058654561
101.509285084207
101.676275168616
101.869976341592
101.970004021271
102.131503238846
101.943077749287
101.837277840553
102.002890114526
101.721283716346
101.613292310646
101.946336645205
101.561617520442
101.869445519073
102.31445680965
102.116472621448
102.032258792392
101.77543854667
101.785577578281
101.665787617182
101.474131585607
101.964382284242
102.047477656491
101.832832600245
102.027197120684
102.100997865559
102.039381433579
101.996687474128
102.039266610823
102.062663317843
102.061063633804
101.982540324132
101.782040189087
101.864128493809
101.969476405749
102.008426517807
101.943740039643
101.726536871259
101.872896559186
101.861098737353
101.823857393926
101.99337678501
101.920901771956
102.03049509557
101.974992581265
101.835607635462
101.53613711387
101.509898963451
101.572151404266
101.762787393747
101.640707056519
101.429637447815
102.310595065159
102.00131632079
101.867636710632
101.66061658275
101.770141724754
101.666720916105
101.734553919944
101.888182113475
101.696753450434
101.781016051719
101.710619303134
101.49329523853
101.763953765773
101.843732670392
101.960980846254
101.954371658333
101.826927138681
101.806029941643
101.864245055716
101.831203473341
101.901878710101
101.883021570186
101.965417384551
102.079214473569
101.96752724943
101.957613122479
101.908674823446
101.660770945959
101.647912681139
101.618472555807
101.868346006521
101.851624732279
101.964472639521
101.927828813044
101.947246629481
101.696076642699
101.519129716358
102.038961813776
101.509301367122
101.461151928074
101.806937133897
101.927346862121
101.835544691684
101.733611931795
101.827629256083
101.919087977936
101.720368671434
101.811339438017
101.711180455961
101.387190925958
101.35345119971
101.510106836778
101.795773477301
101.88419721302
101.815683252087
101.678024126387
101.673812699825
101.765673232304
101.629613801802
101.729351913561
101.435510998146
101.171895023511
101.652102657179
101.76342749926
101.817369598181
101.712434332314
101.634770154811
101.620001856918
101.575735784669
101.469792023373
101.576359831478
101.477283367543
101.447563229105
101.569386825987
101.589265139453
101.684736722258
101.693236458828
101.553807904674
101.584850417666
101.639436011122
101.689579010665
101.687008121908
101.583783262693
101.504553235996
101.506299917853
101.526451842391
101.692793878276
101.689728482639
101.75121078456
101.736673027514
101.666273477765
101.768430440027
101.73038315885
101.396789199003
101.128728718718
101.284397869268
101.57562921431
101.486642648879
101.406085029745
101.582486565821
101.758671383643
101.678952865816
101.633288428935
101.547309621577
101.294732862481
101.352200768723
101.619114307784
101.809964511815
101.674815213142
101.58339295461
101.632557218428
101.49577173286
101.448299820818
101.526276840793
101.526097488952
101.431433487088
101.417937964476
101.348753366471
101.346264056442
101.475287246818
101.540314781264
101.550431905516
101.555182293274
101.61213924985
101.464106037047
101.267351771418
101.275584977967
101.2349773247
101.164871839421
101.219194716416
101.331025424245
101.37996686648
101.449986408543
101.444885925781
101.411591154355
101.481481836612
101.498315227481
101.402753057825
101.440641410056
101.522991746355
101.368320830567
101.182843534934
101.227753405353
101.197758330583
101.172537766422
101.272067515141
101.418306783208
101.407181432862
101.352744722877
101.327898521531
101.327503774554
101.262230643059
101.344131862094
101.37508120768
101.184713153812
101.18610446163
101.306461200676
101.165219988868
100.9120229124
100.890942258408
101.161332722128
101.260327069884
101.060131271255
100.996785904641
101.18042053501
101.143241829223
101.003410348046
100.952907183012
101.096079118802
101.170452393294
100.997856612385
100.925030530189
101.013496694286
100.931825972822
100.896788248082
100.896434459851
100.870222184556
100.835881410536
100.865768637799
100.792194398232
100.802152926129
100.976627269096
101.133284992991
101.186931840305
101.206887287317
101.123286606116
101.025962283739
100.933823777498
100.838697001825
100.937653528313
101.135940650959
101.196469494204
101.056580993806
100.836878620861
100.732151866795
100.772944317146
100.87387300903
100.949718190094
100.944826765697
100.884437874117
100.916324374039
100.935443668716
100.913217497113
100.883719530708
100.852981526975
100.875358844685
100.87474918937
100.83948472516
100.757556452029
100.720867352655
100.862848617454
100.907250099789
100.752753226819
100.703455339828
100.793191610652
100.761944141871
100.612209721322
100.516212443563
100.598044354354
100.717902926307
100.828808166182
100.805743477547
100.668135698155
100.610830909783
100.722136290841
100.821937950967
100.72801838341
100.621870588934
100.652133854975
100.710376821815
100.826515702009
100.86486236803
100.756472533431
100.626844642434
100.612584323322
100.622178295284
100.67908273513
100.729919746284
100.637991629727
100.580057538042
100.688676977668
100.628233790724
100.498602371718
100.538378492949
100.691451391941
100.69261700447
100.606165176579
100.537463514683
100.647113813326
100.783739237964
100.829742140962
100.656590782944
100.458677316003
100.478620395514
100.550921609196
100.521670438654
100.534745696801
100.669954981597
100.752203365298
100.667737350747
100.691873955775
100.722467602675
100.575557148273
100.548774460055
100.671512110908
100.713217836042
100.671492228029
100.585812438691
100.610345922466
100.684003458875
100.67576963598
100.66241792575
100.646367358512
100.608651521835
100.570310870625
100.551148087736
100.597313453323
100.641605076712
100.658226769863
100.568915050954
100.592810866485
100.625204928838
100.639716758089
100.749924353399
100.770103457162
100.684505775308
100.661592995133
100.655596509677
100.659850725238
100.672332233182
100.620523263182
100.617993783649
100.69175128749
100.742609208977
100.764981639003
100.774464909804
100.775461974567
100.679462965854
100.593745254308
100.629635989105
100.721496821167
100.812544645074
100.809400239609
100.761809398223
100.753681241304
100.771324177282
100.802536451426
100.830843724624
100.824184362463
100.812768488878
100.784874579773
100.732781078973
100.74084684666
100.768109343831
100.798050119713
100.754834098041
100.706377964098
100.749030029606
100.809466365624
100.83231998464
100.856273041487
100.862880219363
100.87736456513
100.930692652703
100.909660166484
100.820354499589
100.79533615568
100.78352611558
100.753277328662
100.753189343376
100.784848812067
100.807438343151
100.775270838851
100.768328215252
100.758843017964
100.786004388158
100.86280254374
100.812043214735
100.760459046758
100.799924251213
100.842197354395
100.848775182253
100.84851675459
100.797999918523
100.716192443669
100.717348913408
100.785817323225
100.807831359578
100.791114771442
100.781341253186
100.797031362762
100.799013512418
100.760400034297
100.727506574871
100.732070838392
100.639237975031
100.650177288521
100.757089139824
100.750824016996
100.756132841192
100.759556298849
100.718520875218
100.738483594268
100.707268590273
100.648503792217
100.648126974797
100.671991496297
100.659994991996
100.641082405064
100.688502353454
100.749892519686
100.782784326732
100.795223265287
100.80711786956
100.895083471345
100.951848192595
100.907023630534
100.863234600072
100.880275661168
100.912259023658
100.867654734513
100.795240864096
100.849535898397
100.892770075031
100.86308938679
100.876008903967
100.891939628822
100.840149310117
100.842679821779
100.90249368217
100.869734205917
100.725009053912
100.607612588751
100.589119147158
100.600066954733
100.604322962983
100.659158688225
100.739789370337
100.767296348641
100.692984117769
100.66852533616
100.656618950371
100.541841772379
100.53599904519
100.597212850977
100.583181256875
100.507885638275
100.356430878382
100.247207461861
100.295355715153
100.327954395425
100.218873821496
100.066357027237
99.9493486109773
99.8871009170617
99.7663469443247
99.586437710914
99.4704119563604
99.4543156208788
99.3887078400171
99.3183246586181
99.340057735214
99.3564421544997
99.3794875914563
99.4581373082515
99.4675050967907
99.3878361625274
99.2985542589964
99.2013312984495
99.0295261016499
98.8694346036983
98.7732794976578
98.5902898994485
98.3977454199253
98.3137181685733
98.1294040151023
97.836470328596
97.7575213681204
97.9171109530685
98.1487004862541
98.3411591326297
98.5497563274798
98.9498304414295
99.3812729433826
99.6796473153257
99.9504914567229
100.146544145818
100.19306804599
100.19012203367
100.08105487021
99.9416043022549
99.8793543793123
99.8879407430444
99.8183557281794
99.7689151498301
99.8149374013929
99.8120025785731
99.8864719301288
99.9906696958748
99.9560575410927
99.906716784638
99.9827326056111
100.072416864333
100.042730337194
99.9541287856643
99.9083715024133
99.9022406361556
99.838366264744
99.7810214288745
99.7316523080477
99.6196239653751
99.4451585409377
99.234493040847
99.069005020221
98.8863641008714
98.7289836435025
98.7218344152874
98.8534231909449
99.1245506534589
99.5520574202176
100.064914561482
100.486322366413
100.770275230425
100.893222568136
100.903940470485
100.878946143859
100.835734276306
100.723201765175
100.576250203422
100.504828887664
100.522740964508
100.567876967066
100.570405711888
100.527951144852
100.531008857444
100.559052872124
100.537462485346
100.479559210205
100.453918819706
100.446528803222
100.465794289108
100.514277030366
100.556513250788
100.569997864753
100.574401318828
100.56206257577
100.560661955636
100.569023093972
100.57830223234
100.571892544507
100.572489671518
100.591978955588
100.643160231673
100.638082451603
100.603904030363
100.594335369413
100.609139857186
100.64462331644
100.62232116574
100.622316282002
100.714035439018
100.722429394227
100.69106482034
100.664168840149
100.623265507635
100.617283829942
100.675884944189
100.688521181558
100.636837862399
100.655226663732
100.686377809105
100.684343659824
100.673171269126
100.689752716137
100.69140176758
100.667402886889
100.652249598698
100.649744246721
100.687536705497
100.728671550497
100.687706258158
100.645906097927
100.678145040268
100.716324450213
100.697359284028
100.676989979103
100.720913913692
100.76023296462
100.747916133763
100.690305136404
100.67851959918
100.713824450526
100.736748316689
100.765996979599
100.722140443504
100.638660758507
100.658280817479
100.726042498374
100.743472095054
100.749952994343
100.781689730896
100.787055682902
100.746470629588
100.733683576247
100.742338128714
100.728267361541
100.731405202439
100.755721564139
100.76836924162
100.763373078983
100.732567348719
100.706999682109
100.71364934555
100.735541445402
100.753200775834
100.722764732692
100.6966468152
100.733563122791
100.7377495343
100.747121940166
100.780571552209
100.757743253864
100.739149478486
100.738983661267
100.730160163305
100.709934748273
100.686844976102
100.68282617833
100.69162332437
100.696975195894
100.6615092662
100.673396136844
100.720575420299
100.745114821106
100.763177153004
100.741624423131
100.745620759288
100.780762217199
100.784680776669
100.752865338418
100.721119670864
100.71235482521
100.750383063556
100.797611887428
100.818918490505
100.777504263201
100.728160008234
100.761483079382
100.823989452308
100.824358593763
100.788625753511
100.801710600085
100.841224221531
100.831313106049
100.779624707161
100.716839404891
100.776711664189
100.843359618641
100.77011492765
100.736220969718
100.781280797107
100.786997624951
100.74527561814
100.717418285663
100.733692395316
100.753153354298
100.722173940389
100.696188428346
100.775245888831
100.774023422481
100.786009398688
100.843970815446
100.839591491911
100.781348563175
100.778426065817
100.78544062172
100.767157316237
100.6884665908
100.684511503422
100.756976323708
100.790852089835
100.787161225328
100.797387272889
100.863181796036
100.846507077619
100.744849591092
100.664631402258
100.659452073127
100.732659059402
100.766873871134
100.790457703426
100.823849751043
100.86422184535
100.856195247205
100.827543738101
100.786105106928
100.785044125826
100.786468690752
100.689441316105
100.67228989575
100.685469605824
100.663457210642
100.684029756704
100.755301133064
100.77620221201
100.733984701632
100.760606641647
100.764802990775
100.793668587833
100.73891765053
100.673482135831
100.73459373391
100.811381249838
100.840090083378
100.776440429659
100.712633576664
100.691445884943
100.659087140309
100.737218754341
100.873395040601
100.81118695628
100.662177874429
100.691552210248
100.710381672042
100.607634151207
100.65349320521
100.718185596447
100.69451641203
100.784650757673
100.873700316194
100.837679386174
100.823052377315
100.805104016706
100.753951495508
100.80221026557
100.863564722898
100.803093352185
100.698761712436
100.706007982331
100.798969512336
100.783680980661
100.77190137991
100.778718194046
100.736593139911
100.733058075664
100.790814357219
100.810001130597
100.735805031977
100.716682642516
100.723843530131
100.74635530992
100.742187815059
100.730973466562
100.787445657064
100.818219426058
100.774524009572
100.758039431111
100.781999009128
100.736248351931
100.69384543761
100.727266134216
100.744219119222
100.750600342735
100.777742672397
100.78157388343
100.738649386641
100.70105841222
100.715007887647
100.727286374956
100.715194910308
100.640297038827
100.590419929033
100.618178218457
100.596145281453
100.563404578421
100.647826690734
100.661723651547
100.596644809947
100.559084993635
100.712207287529
100.688902352867
100.584934144174
100.703824958859
100.666172103391
100.577867405716
100.536382545753
100.678485239041
100.750947210572
100.718462277369
100.626553630064
100.455630823949
100.42602487756
100.490576331994
100.590264006119
100.647347374879
100.728411957183
100.771621386421
100.650413050616
100.5885633535
100.669551472569
100.649164805051
100.603827065744
100.557628859049
100.527894931125
100.556924175874
100.638079482081
100.735608004854
100.660051208116
100.634063889924
100.637778668115
100.67443675597
100.738994242112
100.772982034241
100.685570864007
100.56578101568
100.579129328495
100.598963458794
100.628250341394
100.67782336851
100.66340920738
100.676269989359
100.719216731172
100.711522791219
100.627319009977
100.656685060665
100.718171970042
100.756341293835
100.804656817368
100.723926399547
100.680787217761
100.69517221188
100.695460318163
100.748997221136
100.72457556734
100.688209765861
100.729288705112
100.749741543136
100.626753246214
100.714072616552
100.855412926973
100.831332848795
100.992571781672
101.035676741045
100.907169285431
100.968944066334
100.835796850102
100.780295681968
100.852502125246
100.80830238597
100.718602476441
100.773510850064
100.78707555952
100.870801357259
100.871652542636
100.919186915525
100.955161859272
100.91116795644
100.831887960798
100.826587093912
100.976406012958
100.903334721253
100.757916238687
100.666622985929
100.775221337474
100.971019039271
101.00968582344
100.9474684412
101.12168588461
101.225619386236
101.10219332193
100.969860946328
100.682925463142
100.592215933727
100.742365477397
100.976904586776
101.167368460607
100.992492474269
100.874138592341
101.276255497046
101.4067070454
101.165388538031
100.875032028217
100.798766981763
100.825108302256
100.965664692228
101.126197652495
101.446632784879
101.451328647685
101.230361276215
101.038883460537
101.235716665961
101.169815509558
101.533663926114
101.364734684143
100.751901323032
100.872930021395
100.745046261076
100.82604985434
100.836995217824
100.495205656847
100.440526576899
100.783856493114
101.035248830987
101.058264464941
101.221475653316
101.124476747001
100.777871071404
100.81628242663
100.835084795952
100.725213468319
100.861485284554
100.975503585969
100.794586955243
100.733509370829
100.741317787884
100.617149328168
100.703989305934
100.757846468678
100.613099584437
100.555977973819
100.673460398977
100.712845582031
100.70663377267
100.794287561274
100.717381735733
100.618202029748
100.659773332933
100.549143295642
100.553380892222
100.686293511245
100.795517720028
100.816059502526
100.724303922755
100.561609146671
100.495213613656
100.591639495846
100.681324074076
100.801632135987
100.914277562767
100.773308624567
100.6513359836
100.71948955536
100.895731644932
100.976354254391
100.898609084283
100.804950569329
100.677994479565
100.645593296993
100.866614008239
101.042458404383
100.769769843808
100.758002302272
100.96003478228
101.21996273776
101.082825382968
100.794212442149
101.054522743015
101.315190664741
101.373248911655
101.185250140259
100.969929742354
100.657122310587
100.331203506227
100.496108911717
100.799077217021
100.943277622972
100.967920517253
100.949055839834
100.992623794827
101.346130550725
101.210846754722
100.988139028426
101.026228891718
101.173278940703
101.115205240687
100.770291245079
100.64743723476
100.711025496951
101.031840949508
100.964544529625
100.75168835977
100.989069001131
100.924399804538
100.56105612492
100.606691582911
100.677314048878
100.712461047221
100.773404309608
100.879394942899
100.925837808766
100.965866723009
101.083980767332
100.961157215097
100.97380495421
100.968674248743
100.83489138287
100.766153130881
100.716318297415
100.942792384557
100.98179224289
100.980020254313
100.817905236111
100.631507678041
100.562872966967
100.416063649932
100.414876757827
100.364075564608
100.378086016879
100.701936445047
100.750290296917
100.689151305985
100.540975943803
100.462618313137
100.547600156364
100.58685568858
100.579515085272
100.484445890719
100.450874085345
100.494614240821
100.501251062989
100.529460270383
100.440508875322
100.45157115775
100.563577173537
100.531685797358
100.491345337553
100.514391823041
100.550020127919
100.574063069524
100.480550935762
100.446414410411
100.487125393377
100.407004972081
100.483211165797
100.568256016793
100.401809804808
100.348302640491
100.420445731655
100.561788316623
100.662450855256
100.611474965471
100.517209498414
100.491932750768
100.464925418883
100.436025385265
100.413973890817
100.332417868949
100.305877645081
100.38575227228
100.467881230173
100.472743744618
100.464031141437
100.43071341732
100.415414333799
100.412873589091
100.44451659786
100.460371397962
100.336723818723
100.308768141946
100.178618076835
100.13566643537
100.17799365202
100.223802441808
100.256276276332
100.225594602278
100.226592112027
100.239940243745
100.110550889356
100.174802384858
100.147390965198
100.144275531352
100.212693691243
100.200918382266
100.200521721813
100.198580480196
100.261274053042
100.243113244806
100.10574027614
100.052487509309
100.110158240645
100.162581199938
100.168933237566
100.117580773781
100.033092231224
100.051719997804
100.063179977123
100.038415221202
99.9271053361607
99.8955709053559
100.008048921145
100.101003628837
100.070509832584
100.023199027957
99.9902121925819
99.9444767409808
99.9468146222503
99.938321528596
99.8693336124868
99.6709517944648
99.8336117679245
99.8536111670101
99.8779271147892
99.8344148075291
99.7077081255371
99.6035687579824
99.5967201864611
99.3989804742311
99.3400547806236
99.2228133849031
98.8808158670784
98.5399120008695
98.2675217414729
98.0694889421654
97.6937474335377
97.0727974953179
96.2601196552333
95.4472490629642
94.860748447078
93.616033635229
92.0277182656478
91.011643364516
90.3501821267451
89.5867644801603
88.7149118082658
87.572464227108
86.4493591149838
85.4227294812135
83.9235503261971
82.1095695322104
80.8678891640277
80.8618306772326
81.1437068569755
81.7317326931565
82.530611841981
83.6367397443328
85.3623711855019
86.1486315229522
87.9029305246303
90.0581631327204
89.9525373211448
91.5684946215409
92.0014952781603
91.9533802678959
92.2130914872166
92.4931269015085
92.0680927050643
93.1028227076905
93.9947545951599
94.1315143896415
94.0400038787456
93.9085606920789
94.458207095168
94.682695772301
94.6099047203116
95.1146842905199
95.6271691533246
95.5010068673209
95.4076219944045
95.8087354271089
96.0011736118454
96.0260299742123
95.6433702906316
95.1611343087477
96.2710881312853
96.7101400187488
96.2684486636687
96.21594280069
96.6959034744788
96.8825742716314
96.9074461398159
96.8234867759473
96.4829616396681
96.6506112224816
97.2184952669703
97.3689407059646
97.1991690903336
97.1711532573004
97.2055651297249
97.1407409956165
97.3503348259569
97.4236560703698
97.1201580656734
96.9641699422631
97.203529620593
97.3147277895793
97.4109727915081
97.5202100211754
97.6273072820534
97.6301943097077
97.6513670755913
97.7213208011132
97.8485117079789
97.8553873853066
97.8042722703702
97.7657170920257
97.7651389009425
97.7100452610442
97.6937614803456
97.6393564897637
97.4697706976527
97.194194606936
96.9563605095275
96.7407174228891
96.5767427925656
96.9507999210382
97.5170730765256
97.6336979754583
97.6821362796204
97.9412023119781
98.0211166323355
98.1505097091933
98.0833175360772
97.6966254648228
97.5580648236655
98.102320998082
98.2643250937916
98.3769169025108
98.2690588505785
98.3203267722504
98.3314056347484
98.2645321602204
98.164186951026
98.0552715483372
97.989709212311
98.494535423834
98.6885708302263
98.4901380806057
98.4283035028494
98.5305971465262
98.5928349003057
98.4692038069019
98.4441508901797
98.3092243264464
98.2981055400154
98.4739266572565
98.4478271729304
98.5033030992433
98.5141903646946
98.4390476848188
98.1881599157753
97.6297917862634
96.9484427642781
97.0853791688685
97.7679348985147
98.3298685660914
98.6735476802174
98.8856618767865
99.1727923431818
99.2441139347928
99.049784398636
98.8605113139923
98.8606054583457
99.0176290049086
99.0162394390279
98.8720083975847
98.7265510462194
98.54152512093
98.3091381408505
97.9566225750785
97.6219741802363
97.6290155095387
97.6778640359265
97.5595819553341
97.2221763662893
97.0860642493763
97.021161991404
96.7691240067971
96.1762747996622
95.8481499392787
95.9079090986224
96.0347074135427
96.1050663823903
96.2134132997104
96.4831812877004
96.8480856945332
97.0790949066131
97.2883580307975
97.3942911917073
97.3923834452966
97.7315429029538
98.106269032301
98.2463554927879
98.3089756966734
98.4514928504103
98.441461731402
98.3247066251813
98.1771667664616
97.7951283487801
97.3313312892529
97.0068719249909
96.6075438078031
95.7524177694501
94.5849544910179
93.5815148578143
93.3064974518227
93.8797190845376
95.0167653274474
95.9938108871866
96.4614426205422
96.7842051760101
96.875758649977
96.944349231633
97.0898055196635
97.1663088267375
97.0693617395338
97.0092564559731
97.1009525191245
97.1650770317261
97.1085382460463
96.9502832963318
96.816479058114
96.6168884802511
96.4379485001579
96.4311224000545
96.5434507509208
96.710187251226
97.0540884109368
97.4071931307426
97.7097741171336
98.0129182914383
98.2136359111751
98.2696753602174
98.259794450955
98.253480546364
98.2590908095699
98.2184573047222
98.1547627901912
98.0521080152292
97.9556585088596
97.8207456859308
97.6382735185691
97.567566882985
97.7168935799205
97.9763201309216
98.1669066707762
98.2462563359832
98.2129535384323
98.120348282122
97.9763129439211
97.8033881588656
97.6166772820852
97.3943668319752
97.2038165718241
97.0457630112685
96.9026160318518
96.7722379739965
96.6222147183333
96.4376171003032
96.1853600477003
95.9043761733985
95.6478451368966
95.313582165479
94.8335831522753
94.2379040739851
93.5928344494238
92.9529436184394
92.3591495500369
91.8395944726337
91.3423480002333
90.8372825347315
90.3176858839307
89.7235106304136
89.0595971341548
88.4017691279349
87.7077308805647
86.9754615592082
86.2495577638976
85.5259983581026
84.7394492619739
83.8712899050784
82.9494009581367
82.0391367324374
81.195635336237
80.515070491483
80.1069274617485
79.9070630699134
79.7353591939883
79.4510266234511
78.9928204278297
78.3452055537789
77.5345468799279
76.6482541411586
75.7195306951495
74.8444920175842
74.1320703636437
73.6262396558956
73.4535495757214
73.7030181063543
74.3473406561618
75.3702704181756
76.6821924393883
78.1826041430999
79.7385721393093
81.2186461314537
82.4844875989125
83.5658230908459
84.6308792865006
85.6893025833534
86.6662294554725
87.5705298804767
88.3942697512429
89.1254357681174
89.8055875231924
90.447152113033
91.0293085725992
91.5659939906517
92.0826056519703
92.572740949754
93.0492878980588
93.4925691244949
93.9094243154669
94.3161713047978
94.6303439967391
94.8438942121751
94.9754627887966
95.0085771262481
94.9359569674187
94.7714516448749
94.585585838964
94.4759849932797
94.5009778599356
94.7120325896986
95.1263402213486
95.6251721126949
96.0237456178677
96.2727754155097
96.3890849653688
96.4137958612736
96.3942206402259
96.3023096687375
96.1398383171819
95.9316851228324
95.7214765593095
95.4989814644606
95.1935389783436
94.7876591412619
94.333721633536
93.8694412010935
93.3830274434781
92.8759635613665
92.3644695794874
91.8016077609728
91.1597419752046
90.4430320400043
89.6342128286548
88.6660431285711
87.5596062208615
86.4143897975014
85.2958731582017
84.3211150921168
83.6535787291638
83.4089509746093
83.61087656368
84.1301036726639
84.5050280279878
84.2242706337534
83.2101072123882
81.7047157027821
80.0509750625282
78.4852118458122
77.062734681423
75.8594391224715
74.9813869553633
74.4615010193981
74.211970587313
74.1961435282793
74.3413149695264
74.5524518861113
74.8494476558592
75.2470422209464
75.8686416970354
76.8646638394607
78.1747810677757
79.6047531384289
80.9779616549288
82.2232080245182
83.3058095980946
84.2456788465516
85.1130569025635
85.9141078420975
86.5868605848592
87.1467095913275
87.6220728587717
87.9406941482028
88.0917296731323
88.0928317967166
87.9728783826561
87.8082947511689
87.6456015132512
87.5168946749713
87.5024652672281
87.6231587543843
87.8740907878836
88.2205433400011
88.5923866928135
88.9449205521488
89.257149888064
89.5426392749341
89.7526839569095
89.755016727196
89.3152156229227
87.996793487224
85.5307372850693
82.2880154514902
79.5006317582236
78.8733480136512
80.7981322419172
83.5679661727693
85.8216903987527
87.4043304765768
88.4695095679868
89.1943953484953
89.743976800018
90.2169055678068
90.6180698381956
90.9491478762521
91.2212350883377
91.403217331115
91.5136412803415
91.5919946272311
91.655900901399
91.7111970670422
91.7594304706163
91.7926398063822
91.7635234747013
91.6573029688991
91.5006284458419
91.3085420012474
91.1319841250568
91.0196795669057
91.0066229222262
91.0373728962427
91.0579302657678
91.0682246375663
90.9762014906842
90.7775119824826
90.6321516743441
90.6915284666915
90.9149995090117
91.1242167694652
91.313877439052
91.574527013283
91.9230362816538
92.294575477203
92.6363103800401
92.9500733493415
93.2214588926299
93.4201444683067
93.5554758731203
93.6890538096063
93.8633522715766
94.0442575744817
94.1818520678989
94.2887351714234
94.4414123303791
94.6060966120557
94.7390199665561
94.8694686083486
94.9681843791752
95.0120728746544
95.0248301560999
95.0075222412422
94.9269936050842
94.7073430989237
94.4167050317915
94.1572845607897
93.9391756523961
93.7848324257679
93.7624019272662
93.8147318471831
93.8499367848734
93.8370386445369
93.7909138301823
93.7653082208125
93.6658038077636
93.435833217382
93.0557769729225
92.3621147185416
91.4077323079297
90.3506109581929
89.2994539827445
88.5443657287176
88.4402062517905
89.0727247112456
90.1044644609793
91.0822947552397
91.8889943741117
92.5127029526648
92.8824090358751
93.0313338840203
93.0889624238433
93.1224926428525
93.0921040725649
93.0665400120744
93.1546557816545
93.2021683244387
93.1166290622027
93.1089158383575
93.3086839194789
93.4609749691508
93.5149980536283
93.6480437407695
93.8492361609086
94.0003321022504
94.1404258813764
94.2544786658022
94.2871966064013
94.2931115056338
94.3526780807859
94.3842157523869
94.3773788254312
94.4257642472889
94.5025385162763
94.5627325084418
94.5672666662242
94.4961847769302
94.4973446086683
94.6148557901881
94.6926719708956
94.697336967586
94.7963566938949
94.8588093293577
94.4275436811557
93.6529694751237
93.3124140133514
93.6293349517589
94.259865990189
94.9292404186668
95.3893826522063
95.6686309694823
95.9157226559035
96.1406009943333
96.3217711932324
96.4532401858147
96.5982505414762
96.7658999005101
96.9187241015643
97.1103755899966
97.3754098839237
97.5560868750282
97.7315044123267
97.908844732182
97.946291506099
97.9667591216114
98.0810560692024
98.0783574936485
97.9949740869265
97.9671133770005
97.9553076396627
97.8446642867744
97.5478470519826
96.8732127853638
95.6771661114054
93.9157485142934
91.5562055153137
88.6951680503782
85.5760528566167
82.3125603174595
78.6073495867536
74.2757984674697
69.6240409901666
66.155435672828
65.6213290500369
67.9166097225226
71.9859689152397
76.2955232677545
79.4763506545189
81.9096794399139
83.6693798514584
84.4694588050123
84.9816823424836
85.6428471976406
86.2751479822143
86.8975874127885
87.7374480068281
88.7065640179358
89.5572076555557
90.1000566842745
90.4767426564002
90.8526787001047
91.0617647411036
91.2282700845255
91.4781817846358
91.541846195831
91.6196409966493
91.7752804673345
91.9226678103239
92.1403287475806
92.387428659602
92.4841465525536
92.5376781660006
92.7933641406901
93.3086265760188
93.1901488984084
93.0586155016802
93.2293560818696
93.2755258863201
93.2242295280788
93.2651624738724
93.8051692959503
93.8331624532697
93.4344320543862
