1798
3999.43349933624
650.420452594757
1
128
4
106.725938399646
106.859105623478
106.754109547941
106.663010990392
106.676929567399
106.559897841244
106.53430954245
106.606642681844
106.694873129411
106.708391913136
106.648804729138
106.654735639462
106.4826164315
106.522920837568
106.622194939492
106.673549403739
106.608899392052
106.622225689673
106.665580642024
106.685256163344
106.504707015677
106.457695037333
106.599680268772
106.585701844556
106.444533020606
106.354869816128
106.385794149964
106.572294376628
106.444754130401
106.565477070241
106.583344405967
106.310681140328
106.319993766964
106.381906955124
106.389383707237
106.485609461506
106.348211734709
106.266420630189
106.201593629391
106.494627469179
106.328174701606
106.144709662549
106.013509813704
106.150378114116
106.381047513676
106.427425207883
106.543014925961
106.445726909734
106.245541101478
105.956363205905
106.095950942878
106.143494914731
106.000187546872
106.234160551418
106.171212777152
106.072762054899
105.925721849768
106.47094066259
106.271746765549
105.615778321139
106.291149712412
106.043251665695
105.931000510232
106.469746208038
106.211107626302
106.017636774079
106.467942459487
105.706917721464
105.978827866093
106.55344466334
105.514362222762
105.981717158573
105.865847310483
106.081661146112
105.876857745938
105.76333512178
105.06152379827
106.122126046455
106.497107956116
106.171992545869
106.296086046663
106.125377788438
105.865747753795
105.756701155783
105.241142341282
105.649492557236
105.816521486344
105.772855919539
105.689961100725
106.209771785445
105.945860520335
105.884121699768
106.252244280087
105.516025615864
105.526943714938
106.254996902462
105.17722349315
106.109899804266
106.561424739868
106.149691953082
106.20314722276
105.663307402686
106.156675751347
105.92767745606
105.19555461397
106.20537146215
105.930211044682
105.725781580224
106.21389224275
106.084432315789
106.152140692515
106.198862472711
106.25734633589
106.182641364522
106.340901688328
106.148567989489
105.824015790939
106.152255295121
106.029395453967
106.180031086174
106.264004079305
105.916451043711
106.132817524964
105.802557263569
105.873986005342
106.179795686439
105.742047118326
106.080200969622
106.029549887009
105.912583362839
105.401620726001
105.581846250861
105.50342606757
106.033343221443
105.329843960568
105.1395368669
106.68524119215
105.529576642129
105.6573083441
105.385663954256
105.818334409952
105.181952824282
105.47839441637
105.878664611233
105.590433579414
105.7475293848
105.519079840559
105.311587256156
105.72172463491
105.667895319853
105.877193195351
105.706958599758
105.526831687092
105.674364568624
105.916619530178
105.982856839855
106.059142647962
105.859020108606
105.915433551304
106.133869674729
105.885768001517
105.929723050211
105.912313315623
105.650521007028
105.635702767813
105.538800490021
106.207295533477
105.801685407579
105.97201259292
105.825466598967
105.988233888415
105.486428434006
105.357552413281
106.261558892112
104.964206938117
105.401900736516
105.848168999187
105.649934961358
105.680865519804
105.753936255478
105.884370645625
106.021855714636
105.801355962751
106.130385942694
105.5773409205
104.983760999969
105.177436257312
105.475123479742
105.883683898897
105.8309238477
105.962902964037
105.901816280005
105.748704646255
105.863886521701
105.766636510255
106.065490389753
105.432449217313
105.294545070506
105.821376935211
105.574409422969
105.926492547151
105.714412703788
105.519765812812
105.625920661598
105.572037880508
105.432156401468
105.724141602102
105.517511953201
105.587693471852
105.834788888777
105.89529632689
105.967153989528
105.975423105311
105.835419476474
105.849280571164
105.978924197826
106.119098882032
106.127083990587
105.916101182549
105.807978494295
105.904907789649
105.7498796497
105.845223041803
106.022337557854
106.331128128717
106.202558402635
105.894499436712
106.011848359032
106.083905816434
105.559315566162
105.306621694658
105.518407518855
105.621829585738
105.725247177162
105.914835529801
105.997513956488
105.972594364434
105.894085199756
105.987083083922
106.153080212559
105.994550360292
105.918092151087
106.008337401972
106.190335037158
106.205640443726
106.059821245109
106.023436547885
106.122415869681
106.065164489192
106.080584847294
106.170585526602
105.991726861466
106.006190510613
106.015962701925
106.01545914914
105.986421961085
105.97813369177
105.961323508757
106.055106354261
106.173625249869
106.102699271038
105.899757896858
105.837898428748
105.814350030121
105.804526356037
105.984359324388
106.111007104986
106.028882444049
106.074371300756
106.035017930511
106.035108577354
106.221735080124
106.26530747217
106.10223037232
106.048585129163
106.01110769454
105.850558431734
105.761254754643
106.026203314704
106.04164516393
106.060572503846
106.139168088336
106.14169697786
106.004517685623
105.833298284445
105.740039262062
105.751492667502
105.843629471637
106.061130305575
106.017703361765
105.70010091777
105.602804046393
105.837951151749
105.785138987162
105.526440476407
105.661988693484
105.846827861375
105.790639970216
105.57863035489
105.50116806566
105.794906506994
105.925468179472
105.774231226774
105.641203213192
105.776079154511
105.860848666765
105.732349456223
105.714347403047
105.717110944427
105.549538910106
105.648100006847
105.725638108601
105.737932754587
105.594980207511
105.586529177175
105.609969084355
105.612836275771
105.612299867328
105.678293673739
105.850097740499
105.838128490459
105.694477315137
105.722484979852
105.726384780616
105.666077941467
105.56064188739
105.608840135766
105.723298995118
105.813181647317
105.685854944528
105.493921701493
105.448589113459
105.471271302999
105.51493848005
105.552033544585
105.481542283801
105.538346944415
105.62423486042
105.656208072507
105.604300788034
105.490239401954
105.379321917846
105.366259018652
105.432721630115
105.462147762233
105.4086722203
105.450584326679
105.436414164712
105.321417350055
105.348842413616
105.476384973212
105.351751481459
105.154443486554
105.148702702619
105.265509499152
105.284012196494
105.388358306491
105.398841171445
105.332302826677
105.298603742027
105.369858635659
105.397559022708
105.301188592813
105.255522423645
105.329030819757
105.316254620135
105.311219833598
105.320783586131
105.274115763082
105.236334044282
105.293636344678
105.304498373637
105.287554456839
105.26338391165
105.180746614791
105.161384997598
105.237912284541
105.135859069091
105.101652248522
105.117648675157
105.156306536604
105.224571392847
105.22757769786
105.200449582686
105.233713862419
105.194584056717
105.225622361837
105.164288111917
105.053278345914
105.041841775129
105.051764682083
105.00837097438
105.036337530144
105.070872583308
105.102987981337
105.1137373014
105.167963422711
105.102009686512
104.914492049697
104.937227911374
105.056237922755
105.036352394762
104.99809594396
104.933537622903
104.937112821482
104.992086585713
105.025527684084
105.02330383021
104.901737150882
104.792479082089
104.850701618198
104.824445729606
104.831324298091
104.973960757826
104.957195831617
104.827279246225
104.944980908803
104.977597549684
104.867722482141
104.881137895685
104.923199301574
104.888150990697
104.913514586853
104.797231427555
104.711480880091
104.803906368255
104.824885718812
104.727171977869
104.746426895141
104.873917650378
104.998248475761
105.001893616634
104.85266682203
104.632259867336
104.552465016636
104.694846668549
104.854584235626
104.871399671404
104.794095882764
104.73005302558
104.743441107881
104.729775032666
104.738921451733
104.84907640078
104.860853223804
104.777566869357
104.795228511451
104.761040361144
104.745363712383
104.765512639162
104.745657320507
104.712124413691
104.670440483265
104.678399078863
104.750434932316
104.722891271368
104.706536292753
104.678593421671
104.603688539087
104.63072864874
104.686321638443
104.670707588385
104.711727363248
104.662099609778
104.547247811774
104.526920814218
104.589621769076
104.660125536019
104.670672342383
104.630249581587
104.604161583904
104.589085911187
104.527212781098
104.412304164042
104.469745780445
104.630046639307
104.635829597614
104.533173051809
104.479126116927
104.42831058859
104.384750893013
104.404394198407
104.43212700706
104.473749567971
104.547647697237
104.521988547627
104.479369679166
104.448759002048
104.423358276528
104.484140571883
104.541486644281
104.433124436501
104.374185141598
104.38771493508
104.37934897719
104.348567672072
104.343703834933
104.353735607031
104.397650333681
104.348882767631
104.244430671819
104.212359161458
104.333508002537
104.369844752694
104.323543703288
104.348110466407
104.320039016545
104.257187591757
104.31758367866
104.403897232942
104.488745164748
104.495942604789
104.41848375419
104.337426484813
104.291060322829
104.312340620523
104.316131084989
104.251484859052
104.243236349923
104.232117775092
104.254897604315
104.272893329013
104.264067896706
104.243636868774
104.196819676753
104.136732751143
104.08387970515
103.998197646774
103.908188095627
103.807421799465
103.751794882067
103.744517833389
103.807860891297
103.852586561306
103.88108198516
103.873114617461
103.855844907231
103.817163964153
103.72519727924
103.662463417666
103.63925891534
103.623722638778
103.55422205846
103.390357636086
103.245743244725
103.207435828757
103.182717560668
103.041838941778
102.886932218599
102.780275871969
102.685320962094
102.486566433469
102.286567994496
102.19482424629
102.096580561241
101.885537763157
101.703748586425
101.679011497675
101.677845188999
101.622976384705
101.622643356555
101.608969292727
101.536622812301
101.465517569592
101.364053000914
101.121259930552
100.773665725555
100.385509359463
99.9155254860196
99.3822787087637
98.9494344141083
98.5609932218016
98.1720690346217
97.8472083664114
97.693643583186
97.7615926286667
97.9851635963683
98.3357299698793
98.9566870026071
99.7496873324274
100.42004761071
100.963249945629
101.400064281147
101.631488975289
101.722038780803
101.747635258166
101.757984862725
101.731817085084
101.745541495403
101.722553936878
101.695055136472
101.72515495305
101.759508842895
101.943156354642
102.1199682426
102.118917365753
102.156877848008
102.30458254808
102.400055749455
102.362948909108
102.253772732054
102.171868373215
102.135033585066
101.953492205996
101.727471977617
101.601776934051
101.444415354772
101.139510957832
100.770452937592
100.397130480417
99.9695551171657
99.5600455130816
99.2942093829328
99.253453017659
99.5779791095919
100.267512823697
101.206506236317
102.103189578249
102.750806362116
103.168921337552
103.39461277451
103.422410728562
103.382596344967
103.325703586059
103.245277456723
103.176915073249
103.155799770682
103.170321441098
103.172276383232
103.155164231245
103.174360694962
103.207254811178
103.214003896962
103.160363591564
103.158149821182
103.232876321273
103.289383436189
103.292327147978
103.287264865555
103.280028039231
103.24495513068
103.223493504085
103.287709890045
103.340461026674
103.342967764577
103.326079364395
103.322231728011
103.351762024432
103.386783931364
103.317961963503
103.309211097632
103.354846477406
103.328029788868
103.339265106347
103.365490348925
103.351173365101
103.366331422943
103.388990325664
103.399645729562
103.364177155643
103.350841638935
103.371930951762
103.398444069923
103.372228927366
103.323470242585
103.333748136375
103.383032141991
103.374740253946
103.326467279405
103.317898910678
103.340920944205
103.346282868876
103.325282918797
103.323929128715
103.335055938003
103.299874801442
103.276427306882
103.322140514166
103.361063557646
103.329926304672
103.320710519313
103.311976035418
103.331597545454
103.347670323868
103.326242795298
103.265937976857
103.274000216499
103.311951850782
103.33145736967
103.354556606706
103.307975024306
103.215967619296
103.260464782091
103.348852541838
103.334172768399
103.272879162989
103.297426710374
103.341939809286
103.321926822799
103.28381660172
103.295310312552
103.28538165088
103.255406268353
103.225878731574
103.258365428605
103.28354914502
103.25987169631
103.242147946729
103.221967192248
103.21843971199
103.273887159278
103.262943061934
103.198253111758
103.184183718401
103.184226764783
103.230867771697
103.296438262095
103.258359374529
103.244076592939
103.279302429566
103.267847309698
103.207785962257
103.173624418658
103.189226471198
103.243693583053
103.252063300741
103.217814995916
103.244980919523
103.284693699513
103.266221643127
103.281786807059
103.281775648767
103.282124389464
103.296494723324
103.294757808897
103.252387648035
103.206254632028
103.26691492226
103.334818142743
103.32775019134
103.271612452916
103.182469677819
103.180028226072
103.226356710585
103.271290759468
103.33004475369
103.295022950377
103.292009581872
103.389589821085
103.368838487086
103.302410434273
103.236984474328
103.249129724609
103.332618663318
103.33289059437
103.331972588097
103.289473266376
103.187440184395
103.220967519559
103.258925032635
103.266273214609
103.247847282929
103.228438894817
103.210036393007
103.222663905179
103.193555951792
103.127357669227
103.111107433259
103.175962266342
103.175338933164
103.187932317202
103.19278058735
103.182773564659
103.194305490616
103.267407318239
103.246619753357
103.13671345577
103.135121918356
103.200204686028
103.200385184197
103.171808076656
103.139857917697
103.166050577659
103.117724070324
103.089065342896
103.182021163124
103.214680401697
103.203382022324
103.166795959932
103.120433527902
103.161940985568
103.14047042267
103.10147967112
103.044562688989
103.054512480794
103.138544860162
103.075881130774
102.988760932935
103.044731452378
103.028181707269
103.002632297075
102.99105999374
102.980917434568
102.980202758024
103.03532198069
103.105747340701
103.049175053113
103.02099598232
103.076277275693
103.021854589651
103.011301831199
103.02334667255
103.031749217892
102.960973595532
102.979899028557
103.083207082148
103.027094769681
102.949353686692
102.988768336448
102.978788545686
102.853239874401
102.894155588938
103.058184674185
103.091525400151
103.062688806744
103.004955932356
102.97815124124
103.030908510943
103.055255408755
103.008456735708
102.990113441588
103.001316475164
102.995161117484
102.962939624608
103.002719030131
103.02718384204
103.030010629632
103.057672924742
103.021026576532
102.910955280844
102.846070238653
102.923580252553
102.934456740516
102.820576580149
102.819354855019
102.879804533629
102.96078786154
102.932523713682
102.830686869284
102.880950107057
102.912748550072
102.90008003641
102.922455155169
102.920088921114
102.873218951881
102.831936211475
102.820664883762
102.770578700996
102.757533087504
102.800343669891
102.843846325854
102.814896659762
102.757507218787
102.753267637494
102.706776466571
102.702220490473
102.687917429359
102.619253780246
102.60854533374
102.552954181133
102.659465465974
102.82541855558
102.851440994204
102.703391449243
102.305173404377
102.425069157247
102.712960811944
102.623602135401
102.724942520131
102.702199514586
102.682838004657
102.537914296317
102.656297598468
102.629574768062
102.533276884576
102.470766749958
102.276644817648
102.22986746962
102.337253621995
102.449644906252
102.504576765435
102.680809133834
102.819276916415
102.628904620164
102.389811061102
102.528412983257
102.507849725529
102.550318639331
102.583319145987
102.429807674236
102.488929943891
102.513834741291
102.616931952177
102.479507366954
102.4434269639
102.538513457651
102.586987961926
102.590706405294
102.672715521809
102.675383845595
102.577553019121
102.523652478741
102.608689395695
102.625931574252
102.615697000626
102.587337060499
102.646709177843
102.738494563664
102.749202693804
102.735063317093
102.750340118185
102.774860127597
102.757661687335
102.645043905461
102.753236720045
102.803968595529
102.832403586285
102.850416864382
102.8761965755
102.774129584364
102.738214583889
102.826629837359
102.912056244371
102.732265907479
102.920552854865
103.086142223955
102.94822155792
103.008407917292
103.101849203358
102.870005415486
102.920623070869
103.137825966409
103.13324689942
103.062263317692
102.960922077365
102.905833891254
103.024413295961
103.058032030538
103.015683146081
102.956632939519
103.012887637686
103.11779233062
103.185006378271
103.083975864133
103.159423081904
103.453426170475
103.267455108719
103.022857625459
103.103850693028
103.151182094969
103.265261436395
103.184715099911
103.249639365935
103.492458564137
103.376797553116
103.355745845986
103.231233775501
102.942862400151
103.096915953755
103.091778118095
103.08146298187
103.281715905675
103.390750406262
103.328108119563
103.37657127697
103.731424039352
103.663952025575
103.288551232673
103.281622379203
103.267701001842
103.354336514995
103.773153181945
104.242073462168
104.185478414215
103.654366889904
103.428184524008
103.679344480944
103.303056880139
103.243880354587
103.604390721144
103.416714911055
103.325736283817
103.295178758743
103.105047167989
102.795418035121
102.668557926542
102.735697817474
103.049412433124
103.156501953151
102.969668036237
103.04978942625
102.832967350033
102.54833592561
102.720543830097
102.734194369988
102.724277795554
102.769351317649
102.668602987979
102.521049757972
102.506250643425
102.564112008382
102.562140416367
102.645452403673
102.758880046443
102.634715301563
102.601448466136
102.624677579574
102.589898732974
102.567821341755
102.551265795772
102.510112626607
102.481861032225
102.491737283752
102.395992345102
102.495292817666
102.568756813544
102.530856962148
102.465544914794
102.388954718043
102.363006015888
102.455659175005
102.651528291432
102.836549932938
102.888717801915
102.761296041909
102.607306614107
102.62540162886
102.613305522338
102.714554649529
102.690433919929
102.748819980352
102.980468575805
102.846836858383
102.693634015078
102.990239311922
102.910707446543
102.793136666282
103.040308200507
103.144329734658
103.279001869157
103.187412692001
103.064023050359
103.12909397852
103.297265898866
103.290297278227
103.350964179049
103.550806473466
103.247900236687
102.654587981972
102.649951473408
102.905967979969
103.121819880585
103.251575566367
103.154404481302
103.037148930624
103.392518823252
103.382764577793
103.089004387117
102.905723944316
102.791655553806
102.955645917989
103.028127176157
102.983428900885
102.708790482183
102.661660280581
102.671427310687
102.376578192795
102.800176343547
102.878168054613
102.672918212765
102.886769072919
102.954011166004
102.834128737536
102.875732989085
102.944043193417
102.758164428035
102.749763445545
102.880859677344
102.888872895325
102.991010596358
102.863046045366
102.78780898849
102.775840480217
102.659076719548
102.689920401728
102.431578519556
102.200216618151
102.301517393517
102.241152282542
102.33975524248
102.351443664965
102.152508804818
101.977131941513
101.877178451387
102.090163655938
102.044257322664
101.880255464893
101.812606672963
101.950896948886
101.894079429051
101.8929498849
101.918330315276
101.908819816505
101.767884844572
101.853146105326
101.789779013521
101.759345211621
101.74352134871
101.763244185137
101.857330520608
101.742997258507
101.705570951031
101.7729884218
101.815570262917
101.80763667233
101.767187954759
101.774310330625
101.805856661565
101.681185781485
101.694932744554
101.774656612266
101.582012058872
101.599213977661
101.652946715604
101.748417675621
101.785267332398
101.743359045516
101.680693441142
101.672731388356
101.64232040518
101.684092354303
101.622123469242
101.399640627907
101.341475311627
101.384044721028
101.509333882414
101.595286322136
101.606931514068
101.570662856263
101.507214100834
101.547812744419
101.58830005554
101.603344977326
101.381926295614
101.329068563294
101.043231059769
101.03943362537
101.159324576967
101.298262473128
101.355657172914
101.313002147691
101.275383595196
101.233283556947
100.934985508319
101.026308195001
100.920378664694
100.971469342657
101.143383999273
101.188789657824
101.226693222994
101.196875606189
101.263640527691
101.239833746212
101.032233572252
100.968464742041
101.026725565716
101.130008145934
101.148262792354
100.965845039516
100.707281673624
100.751505449012
100.857186922384
100.864095240458
100.638837171228
100.613934144985
100.748463208912
100.942068298795
100.887306315946
100.87695538322
100.792473492919
100.789591197124
100.798501477236
100.747662274807
100.568617463278
100.172971201694
100.404474176804
100.30367261794
100.534271029573
100.556037321539
100.306607739564
100.038846669997
99.9980108167576
99.6248149971666
99.5625013879831
99.2926858569304
98.6150133899971
97.8794810569073
97.297525010426
97.0599178629256
96.555915078811
95.7222888012438
94.5473256406687
93.2999403368843
92.4932430844284
90.7062981171484
88.3105568926516
86.5796842513724
85.7083955779311
84.6013094114836
83.3033294463457
81.5029814725404
79.6424886448309
78.0448354965162
75.723135126547
72.5086509997622
70.3715764255935
70.4089731868915
71.0627557750036
72.1683594913749
73.4999187374165
75.3946524268138
78.4023120813377
79.8244586713038
82.6721968552613
85.9771650737913
86.2369051255588
88.9708510948847
89.6809121625726
89.7323772765476
90.0570289274629
90.4929003200296
89.7250108117696
91.2047467009369
92.5484327252134
93.1378489250945
93.1378895646274
92.9946519243539
93.7922750297268
94.0491830557267
93.9534166174601
94.586176568347
95.4839508502358
95.5320618399569
95.4371441300641
95.9891122599903
96.3103679914721
96.4714109784032
95.7600677509231
94.8009921896023
96.3174837169226
97.1805520717701
96.7528907727267
96.6569258259862
97.3493441662743
97.7361974291035
97.7598314821757
97.4913643158899
96.8733217264995
97.0676969965824
97.8120704332836
98.2522466318312
98.0731059866866
97.9868346878426
97.9837582359654
97.913469736201
98.1551672843712
98.2221227773789
97.8485525513852
97.6381761950346
97.9366552075614
98.0971964795381
98.2024521096447
98.2584275564806
98.4640661251521
98.4967674659626
98.5808633278034
98.6307909434474
98.8291926358646
98.8825114089781
98.865986009507
98.7967266699141
98.8116415128257
98.7570290146339
98.7838473824448
98.6798257690298
98.5316120525574
98.1712604224932
97.9040875543323
97.5340099064862
97.1764429020365
97.5606597834336
98.3122318069534
98.5310437247715
98.5689972921892
98.8366176567807
98.9296358809376
99.1399873162297
98.9648024789208
98.3053334210024
97.8762208335833
98.3878345899295
98.8780072351017
99.3376526943958
99.2074906695195
99.3341885538203
99.2175076253608
99.0706014802768
98.7085034365475
98.3434642998017
98.138405483052
98.9662407703118
99.3148087116797
99.1692486571858
99.0945645231193
99.1439657699895
99.3172704164295
99.0416802142623
98.9029641299472
98.5401687629813
98.6039189389911
98.7237636588562
98.6853347696069
98.8005651554906
98.7876502990606
98.821256769568
98.3667882601532
97.3108578953903
96.2525443519416
96.7245574951565
97.8998853151873
98.732089501288
99.0978842014418
99.2260544100958
99.6434718789446
99.796321882879
99.5006587438239
99.1385239206392
99.0797511243931
99.42280265757
99.551241699029
99.4543620011764
99.2508678043476
98.9256877256771
98.56248821855
97.9126744534882
97.3370713980193
97.2251161371571
97.2202692057406
97.0565174908934
96.5137727199619
96.3177270229606
96.238371566143
95.9185344646761
94.7968416926
94.2857630458749
94.5881135545381
95.0883272836035
95.2097087616799
95.3829397827022
95.6768826822267
96.1951512208972
96.6014186526167
96.9475089832221
97.0261137588499
96.9436030729873
97.2936042671288
97.8656687683392
98.2797397603454
98.3987519715749
98.6369827065717
98.6735725416041
98.5465569936117
98.3306195359697
97.8157999236596
97.1688742444069
96.600533703448
96.2422229570222
95.2120857843575
93.6186428418842
92.1989138515744
91.7530427846746
92.4225953804608
93.9288432144389
95.308513186657
95.9782413324539
96.3634403126156
96.4163470642806
96.5898493624732
96.8120311888127
96.9901548811933
96.8230764092329
96.6618320357787
96.7547290304553
96.8927665108154
96.8145327604536
96.5456218154903
96.2991370533604
95.9224654539251
95.6806004358965
95.7101790294195
95.9723258174899
96.2483067503846
96.6897656159104
97.1306227133178
97.4692801953842
97.8148091014816
98.1993448252252
98.3648796298206
98.3616319382182
98.3567164362572
98.3777346493973
98.3052389276401
98.2213748548668
98.1220851157219
98.0102262043868
97.7998374911557
97.5000246919682
97.2652189865151
97.4556740870217
97.9272583876714
98.2556434548713
98.361751151881
98.3286702607446
98.2338703033972
98.0421647891032
97.771732243006
97.4879390880052
97.1827187859864
96.8965483537926
96.7083346593484
96.5433111166522
96.3363354066284
96.0859933840251
95.7864755702927
95.409568375604
94.9874243170875
94.6017916984349
94.1343400823645
93.474012179932
92.6186879206553
91.6700549002249
90.7104459700356
89.8066677230285
88.9837622124271
88.2222923216483
87.4608406596359
86.6752731146697
85.7807722530115
84.7754526438984
83.7382600465909
82.6781677366042
81.5919834384961
80.4760579622255
79.3185294242867
78.1111267034107
76.8440813429939
75.4999365270476
74.1241336072238
72.8688364081885
71.896271092715
71.2822051087861
70.9592077394853
70.7168520166961
70.3351583024808
69.6575579759955
68.6677546354284
67.4209375333157
66.0119257050659
64.5710351689294
63.2324021070929
62.1380609565714
61.3841518500255
61.1131125333217
61.4361645765475
62.442953294362
64.1170966218368
66.2644454555831
68.659769093616
71.0969893150822
73.3705851773058
75.2930180165641
76.9696261748485
78.5857285028071
80.151096437782
81.5909312338734
82.8892761444842
84.0728332987124
85.1190810185678
86.0747524085959
86.9515504316374
87.7552005868369
88.4814615552632
89.1698312432195
89.8353018206852
90.4575228921114
91.031019995592
91.5912361137895
92.1081095726457
92.526827990601
92.8370853472206
93.0236055327001
93.0780951165021
92.9758373235094
92.7435533584593
92.4728116183091
92.262194970949
92.2469778437395
92.5030343061582
93.0236266175326
93.6716676485134
94.230572853817
94.6053532395929
94.8158746314646
94.8930730708127
94.8884846311806
94.8129608314986
94.6487361578262
94.4047628786884
94.1463947594445
93.8544807375421
93.4611954900458
92.947464991793
92.3615136275757
91.7396267985003
91.101221463333
90.4338090862915
89.7447231457712
89.0028449669366
88.1423240236366
87.1459542493568
86.0065803050518
84.6524565754292
83.0810879837233
81.3734355708666
79.6881814297575
78.2295716005953
77.1942880323773
76.7695507873436
77.0612616500643
77.8412725511045
78.4007336257186
78.0081585798017
76.5449388672516
74.3372252991139
71.8761168370693
69.529216753086
67.3950991473263
65.5808010434116
64.2503031819796
63.4411492287477
63.0860871967967
63.0941797537404
63.353425257981
63.7344239428523
64.2229051964908
64.9065684972765
65.9998747638735
67.6435136414131
69.7262901908898
72.0015949284088
74.1579033280415
76.0251149298137
77.6515616212729
79.0790281002322
80.3465364048691
81.4919959275603
82.4820546958999
83.309698268004
83.9983680928661
84.4669865571068
84.7308939273616
84.808114800423
84.7028414112701
84.4856515622375
84.2506049115305
84.0656786926568
84.0181698167355
84.1777903409599
84.5498068114424
85.047421862879
85.5779648112211
86.0775817739867
86.5400717624074
86.9122906793702
87.1588820504214
87.2010570850829
86.6338530732102
84.8072090134794
81.3025121322757
76.5186723132982
72.2833166224554
71.3177615448349
74.301390005491
78.4550303933339
81.6266166849133
83.746931597865
85.1747168922122
86.1705487564247
86.9053397994626
87.4710879595801
87.9565397021789
88.3762619762781
88.7282844218579
88.9879430433342
89.1173819120604
89.177620391487
89.2549551336988
89.3020663489779
89.315626088046
89.3314469280313
89.2913529957415
89.1254392698409
88.8721771247864
88.598240733989
88.3828408459238
88.2463128758122
88.1905217416297
88.1967660920771
88.2596180705
88.3008652754849
88.1710112458768
87.9001444043255
87.713301862043
87.7616314852589
88.0330115207853
88.3546752216261
88.6356718137576
88.9660449120194
89.4197978922516
89.9387580160383
90.4247601774622
90.8538587608286
91.2310842638887
91.5161952925063
91.7408417247585
91.9579506322103
92.192281461258
92.3914323714163
92.5357040833932
92.675320663618
92.8923698168829
93.1266305755626
93.311595568759
93.4737474508148
93.6130652784245
93.6909602157474
93.7027562654149
93.6394991144064
93.5061084715439
93.2481993822779
92.8888101609102
92.5083767746157
92.1856847536369
92.0082084413579
91.9675316499124
91.9657235715852
91.9768069097108
91.990545342218
92.0103581114982
91.9991877920657
91.8553424457415
91.5382973095578
91.0228405180754
90.1517278832357
88.8929203968008
87.3634182192646
85.8329101290245
84.7410513177924
84.5723948670312
85.4309512243793
86.9121131718066
88.4120628338722
89.5421805897319
90.3779489372792
90.9537874645813
91.2035523291755
91.3102708336636
91.3656652958625
91.3210235732781
91.3126232535728
91.4002053504386
91.3945078342231
91.294784812509
91.2891725733904
91.4914215580742
91.6813470120464
91.7832104208287
91.9882165722987
92.2670703097537
92.4826234786888
92.725287205374
92.9490639879041
93.0636471067341
93.1433170751501
93.3105578950463
93.4848268266342
93.609512852947
93.7040558039569
93.8091790284484
93.8959343345233
93.9179693058052
93.9174039476826
93.9981628574064
94.1657971294125
94.2824694814896
94.3013010406576
94.4411200026113
94.4624052827854
93.8747007007667
92.8851654942979
92.3662645669069
92.6604759846728
93.4613998937539
94.2818241707671
94.8018374192135
95.1456088955927
95.4459252676855
95.677342858018
95.8284317599971
95.9404869551568
96.0977471446056
96.2979060741089
96.5007121337894
96.6711285105742
96.9251313577925
97.1800425319424
97.4463627984859
97.6460566841769
97.7076305552942
97.8166366326106
97.9339057224073
97.928660030223
97.8769203977288
97.8635134361002
97.8470829811016
97.6748981012955
97.2287331921511
96.2927426978962
94.7458392413913
92.4879401634795
89.4213199652594
85.5794528582201
81.3354013636402
76.8674897183195
71.5655662879795
65.2197384659154
58.6445433257205
53.6235273154997
52.66450343392
56.1760193317865
62.2199041039011
68.3280522284364
73.2038082067357
76.5664155565724
78.500037725736
79.6012454509949
80.742680751635
81.6582603946178
82.3765074905512
83.4991455808776
84.7626118588212
85.9536913366003
87.0095644638023
87.7735109931599
88.3729367594915
88.9535770937155
89.3372686311105
89.4189523415215
89.6996121745954
89.9367686726989
89.9779654418093
89.8071415279644
90.0520603808914
90.8675698084306
91.6782881099308
91.8592454803086
91.4926573796989
91.215150469338
92.171537126137
92.4104284014796
92.2651431427797
92.4241431218737
92.1748440020353
92.1666464901073
92.6829192520013
93.4840202030939
93.2432021370908
92.5790195270801
