1798
3999.43349933624
650.420452594757
1
128
4
108.82814841909
108.847072638117
108.777117650584
108.710100208609
108.808707001021
108.745764225289
108.644599659458
108.710143215914
108.671875109284
108.660081119459
108.805453633019
108.774449144666
108.56692419852
108.632390308863
108.629571235735
108.66489408199
108.652639811477
108.639268135092
108.641203041248
108.665968857216
108.511034645929
108.627799496238
108.845119242073
108.697180033747
108.553186054803
108.448764804402
108.431581430752
108.512081307676
108.294000309216
108.519192621943
108.573319806446
108.339537351896
108.406914167561
108.370238931183
108.322834240101
108.351358345907
108.289242809229
108.281444375456
108.193194178266
108.497724047756
108.234942405163
108.242871962843
108.092349085359
108.130711263126
108.159222333117
108.325838177704
108.61289963189
108.52537485326
108.452552717894
108.1558163924
108.123695412034
107.929861731383
107.754552518109
107.97759184136
107.924102371824
107.992568897174
107.983820353735
108.461670351085
107.992359384702
107.570306657281
108.357089623506
107.730797732928
107.807875871801
108.427340218139
107.992660570346
107.855603513784
108.534675235618
107.564374795659
107.959099456109
108.265829457707
107.330634799884
107.983317813026
107.555985150015
107.958101178335
107.8606841605
107.788948370405
107.028382532139
108.289874474887
108.053906217928
107.597009978801
107.817798077763
107.803253863666
107.718131536349
107.773478215892
107.316529204539
107.65787215256
107.47048518783
107.375351346845
107.450541955889
108.147169363319
107.790545088164
107.80924499327
108.194230295503
107.460486026138
107.646319868286
108.101652277556
106.800548188549
108.18682914506
108.224455061971
107.84478850986
108.042493078234
107.61743266106
108.367256434497
107.795392146642
107.024097528102
108.338442529743
107.56250480596
107.488656958042
108.107513358784
107.834807210801
108.032517762238
108.200015931181
108.280749847585
108.151692011395
108.249642564228
108.002126523772
107.833716536786
108.216325918029
107.953975426851
108.193999501405
108.182882255751
107.860640899043
108.165229602844
107.528364513386
107.638352812741
107.963738827114
107.559983381916
108.090370952482
107.851845816866
107.732755447937
107.076000815143
107.477010519527
107.463240642117
107.985580173862
106.761639218827
106.919096578921
108.396644731996
106.948833510821
107.311788050427
106.960494629465
107.76158089907
106.940288839982
107.198383699092
107.391985304633
107.187846047939
107.629602082462
107.272125586625
107.050724533409
107.40340761536
107.382381768952
107.919342034575
107.785843541404
107.617047170325
107.697091465149
107.685696677842
107.578158218098
107.686613653105
107.570104755219
107.907656761927
108.134600590268
107.668711220866
107.869368879194
107.855245988791
107.597454973721
107.714035034372
107.535968793169
107.876896374409
107.236712136532
107.748121487207
107.591033313309
107.882625157026
107.312614352079
107.505506834328
108.272751970489
106.361032936476
107.224197888153
107.617477902807
107.232360001073
107.451745023478
107.689397865944
107.841882479747
107.970702435325
107.834835630784
108.219808335241
107.371172553788
106.956502393744
107.29061686315
107.346099108522
107.291743480914
107.160378693596
107.556048547713
107.626273608473
107.605544461629
107.709183026514
107.48661011223
107.829523937432
107.185745046012
107.300965290511
107.478499223133
107.086541765046
107.711058194768
107.520548238828
107.437579146727
107.530266811196
107.278416001414
107.111484332022
107.453399000441
107.144538727231
107.387213814815
107.622206919565
107.583446041083
107.816195836652
108.026613627021
107.827454737976
107.704218281826
107.815129008099
107.985194211718
107.933256581174
107.725013442553
107.92584447563
108.013322331508
107.540772088173
107.738449794241
107.924658995703
108.125801536115
108.057394126277
107.942729954691
108.065901633713
108.198768579324
107.829538285621
107.531201023878
107.347564158326
107.347510237481
107.566491343828
107.72200204929
107.809982503289
107.909236589795
107.907975271885
108.064038248685
108.116299562415
107.868758575194
107.933667031483
108.008238751399
108.084767961727
108.125175533832
108.191648909448
108.235628547485
108.237704397556
107.96312756774
107.858141648516
107.998772317622
107.985770460966
107.99569656494
107.935616955417
108.073628246746
108.072664456322
108.120988291523
108.102933036763
108.118408434869
108.334211343173
108.216585034648
107.904353098028
107.884760955188
107.814526620746
107.753507967074
107.929375792391
108.138845061288
108.10930140971
108.0817947362
108.084018147877
108.125690812
108.256375469587
108.271000219623
108.225131816839
108.238479597219
108.085413975776
107.943026921928
107.841734786339
107.941933136957
107.951666753788
108.041880904773
108.240659989679
108.350497489144
108.089848306499
107.984918564765
108.08001949553
108.040116807711
107.936031241429
108.014851927568
108.080526252546
107.942975801466
107.927563144097
108.084435903271
107.920478477471
107.62624872161
107.725508896398
107.814540286463
107.716893299071
107.42612312261
107.457372958067
107.875239773332
107.865827487007
107.743085924887
107.758974000198
107.870062861809
107.940489420669
107.784138748893
107.736384303287
107.885813311556
107.698529396687
107.591687512092
107.679805835655
107.737619201705
107.623659527984
107.675069736186
107.731293747552
107.743557509324
107.798959939116
107.862137275336
107.867693123883
107.988855111308
107.987060158779
107.843238822551
107.72049383734
107.699220352159
107.694385569668
107.733732771776
107.712136426252
107.817232007458
107.789986924077
107.678540817419
107.643756550764
107.574443747182
107.571720539531
107.619024877953
107.595203220652
107.746603503347
107.808148743846
107.780891118867
107.672987022854
107.470450699737
107.431262710135
107.548994671347
107.501342102187
107.387606779008
107.374390946843
107.481376345391
107.471105925038
107.355468196953
107.383890653544
107.488887862937
107.358228487306
107.177760711656
107.158061445368
107.246726564004
107.237414678818
107.380628472824
107.380177376834
107.17874188025
107.04737152983
107.117229778449
107.191850120202
107.181941676843
107.160428637235
107.170757074511
107.117862167883
107.111764921633
107.149121635366
107.118664473325
107.125657283334
107.234323488236
107.222880476796
107.183953836877
107.110488021283
107.012859819787
107.057122213731
107.090643120591
106.830547397912
106.721435144714
106.788825626299
106.922498911877
107.015105355801
106.955762069503
106.84652220177
106.952849158611
107.06066129314
107.062462466058
106.831833000705
106.589533888446
106.63384479551
106.857055475056
106.857095441161
106.831149596672
106.847681474023
106.834240783541
106.781103467931
106.806199915908
106.817495912943
106.737894077562
106.7084570864
106.741463850501
106.759334023077
106.783716392341
106.737109904978
106.644393779766
106.688966560581
106.783685174768
106.749663844095
106.659968085302
106.608643987266
106.648710295305
106.640520828651
106.623800497527
106.623987329861
106.669062624514
106.667458406268
106.691819616881
106.648928479701
106.637864463487
106.674872865129
106.621944927525
106.552579801642
106.696098189894
106.680856018272
106.580690575686
106.557828231172
106.545070508564
106.476636050278
106.469902566148
106.570051883884
106.67316931721
106.655012267657
106.590131556234
106.484380358062
106.372533539016
106.391015186775
106.48287810316
106.497053630482
106.554231351981
106.567054649023
106.504704792508
106.514324151893
106.553101033918
106.568326211182
106.560884377328
106.542047034791
106.518754785272
106.48894110792
106.540191279048
106.512363161655
106.515404388734
106.525504883789
106.424640382969
106.362948670526
106.458972709107
106.484907405051
106.414287053281
106.363676186698
106.397291931281
106.476547827468
106.528240883524
106.441265085516
106.341059124305
106.293323652299
106.314450514054
106.318265097265
106.259658709222
106.270797766549
106.302715110211
106.230454081197
106.199495124578
106.273609686059
106.342666306724
106.301260165293
106.197480605794
106.15237553563
106.194444800609
106.207180975626
106.206415283255
106.149107504641
106.076717666984
106.090620094013
106.126327040622
106.121339543944
106.084536130418
106.036088422072
106.047434243461
106.085125242081
106.07325334601
106.000149591068
106.030422724964
105.992157525016
105.945920149596
105.946124074846
105.980964858153
105.978360890712
105.932720804401
105.919608408442
105.916514786538
105.825583578087
105.764182300067
105.746785425022
105.83166869273
105.906816538415
105.89391473323
105.839649400585
105.811978085676
105.837439215566
105.91351925256
105.989067605583
106.077600697071
106.103105672857
106.074759564162
106.007471191983
105.967107860414
106.001787671995
106.032078807608
106.010079477706
106.007959779855
105.968982929116
106.017589739175
106.09672694872
106.077917623279
105.990234325899
105.964844497119
105.973894163309
105.96992338857
105.922272741504
105.79719235998
105.737361274766
105.789307182348
105.816253514363
105.855261625123
105.834874447105
105.823207222414
105.780807620447
105.783853860575
105.739585096114
105.560139261423
105.442026523012
105.428010553057
105.433891323514
105.327526344971
105.171776136251
105.129939147434
105.129067886305
105.06566914499
104.955056043249
104.862091524925
104.79992930352
104.750864264265
104.646392770194
104.548340050638
104.501193666677
104.521312148907
104.523665690587
104.550441474826
104.658635394189
104.752897044283
104.741843619519
104.714969120844
104.655657025744
104.530899178133
104.323453383289
104.105880459619
103.931881037706
103.746212249898
103.563615603149
103.481405118523
103.480600199738
103.565899100497
103.612716341777
103.738187713224
104.067760360322
104.609353988132
105.239566861651
105.8736156385
106.553614734869
107.223552148323
107.661289377664
107.789640102508
107.835071584272
107.787977824952
107.524906609215
107.203297533779
106.82278103851
106.534403187533
106.357879162214
106.172016067168
105.938220630588
105.73859722432
105.610710860946
105.50788747572
105.495716881571
105.517395688378
105.383427356235
105.232047330547
105.238629642321
105.327107015511
105.254554314117
105.122985373263
105.109618653333
105.141004515466
105.08572114606
105.039251432011
104.970785567305
104.794962208735
104.609466397215
104.411635872175
104.228802729925
104.159689709782
104.226994699489
104.588938529535
105.128731518469
105.745905959439
106.478528330258
107.110605686452
107.392648213205
107.410725294413
107.203720926654
106.856424260163
106.526274964043
106.288475644709
106.019160764781
105.782156125884
105.675839167564
105.61954577697
105.544699307956
105.477537619545
105.409071963762
105.377937306905
105.336865904321
105.253150682439
105.166523232856
105.118933040822
105.131732867796
105.133002507449
105.108071056165
105.106319168898
105.131980057117
105.122662619953
105.064069960245
105.079036827327
105.093443608394
105.053352523473
105.025872499366
105.057626814818
105.110310248991
105.144949167195
105.123459112672
105.120953031165
105.119573270821
105.07755280115
105.067015542596
105.088752295601
105.074887270035
105.046917097867
105.044384558121
105.091093940111
105.081209266108
105.036158599007
105.017401412136
105.039159361536
105.000724807573
104.957399715597
104.994744264662
105.016004228493
104.973833677887
104.947289183573
104.966467680052
105.009681131202
104.995611397777
104.987767484342
105.013045624134
104.996460730325
104.972136345007
104.93218189066
104.894080143207
104.947623498278
104.976862895182
104.94982936339
104.951449003762
105.033913362851
105.046166808988
105.008092458783
104.97124500886
104.983106278653
105.036228183642
105.058423400463
105.054529911407
105.00805731592
104.936315083353
104.97585929722
105.029148553291
104.985919238249
104.928739963646
104.965166482668
104.981800455762
104.971708818459
104.961346638949
105.0052146582
105.001448210524
104.961575272154
104.934622319307
104.980642302087
104.983846992344
104.911887448961
104.905472040631
104.911321316068
104.896955505421
104.932189012701
104.924114214464
104.868181302505
104.885865393493
104.919229491077
104.904081250506
104.899839122545
104.917049520077
104.955412688794
104.991072218723
104.97934062663
104.956708906538
104.941921463125
104.95686926374
104.974309323551
104.963161260693
104.950565411588
104.962836930483
104.945753460017
104.922650478667
104.972109776016
104.992807221989
104.964458908952
104.957615593409
104.94811596939
104.942439522967
104.970530707354
104.993102059538
104.970025647662
104.945855763216
104.970155790442
104.950557544684
104.885610156037
104.889164775663
104.997041357305
105.087754971852
104.998853269562
104.960581458399
105.027968557494
105.035715477782
105.032976698162
104.933779692012
104.853442854841
104.945227233546
105.058244090249
105.051697898363
105.000243129235
104.872120795011
104.830488427281
104.893203143742
104.928776426358
104.828157180202
104.692005733616
104.691642049093
104.832445889065
104.972070609217
104.968190214003
104.889084699345
104.862478019562
104.822057155621
104.834690030659
104.824815032181
104.863231933493
104.78211774871
104.792838880583
104.923501473187
104.943896940524
104.902214594344
104.854996581303
104.785853025937
104.670189197207
104.626655791207
104.723949980896
104.801291877796
104.830485313278
104.830257575529
104.885213261332
104.870198334019
104.783591166632
104.646626695497
104.672804047364
104.764723829277
104.766939415613
104.709180263362
104.716425136954
104.720172505847
104.615113460957
104.557439725462
104.663881102781
104.690290777227
104.622727060887
104.536902600068
104.574512744971
104.64565135643
104.775857827405
104.787733799276
104.625722953099
104.566228229907
104.558506252911
104.569059544657
104.610550654323
104.623996919018
104.617211019262
104.632836845929
104.633533510842
104.632833499479
104.572678355921
104.445357620174
104.449693924041
104.497814745696
104.490124451098
104.52389107232
104.581171575607
104.59569309259
104.637426851523
104.622208707778
104.621343810541
104.67061550458
104.653303026743
104.58039930813
104.522901221454
104.522500811964
104.560673772886
104.541068160328
104.555457756457
104.562938106889
104.563455079652
104.635209170277
104.583682168855
104.48296360845
104.488274168947
104.475834930083
104.531023487211
104.488755358609
104.379442097676
104.35975959532
104.38056882852
104.41615461787
104.397261022609
104.359493446532
104.370663198154
104.431011415139
104.413854705931
104.296805783143
104.209656954693
104.192707230927
104.254401859807
104.334305779862
104.33203832631
104.247685050197
104.268791578431
104.277327730154
104.226982818813
104.161093357586
104.157587773927
104.18237655302
104.08369489159
104.012616916952
104.021832685891
103.975797877927
104.066907026967
104.300811785588
104.440306742288
104.289341374899
103.751608323601
103.908303173648
104.241850847208
104.018274130168
104.145934984277
104.054110091487
104.031937369169
103.90983707546
103.978976182302
103.908192186968
103.865068201663
103.818735581911
103.59308873834
103.612511444967
103.744414952721
103.810092539639
103.847578169821
104.064858258951
104.304026157071
104.081115675495
103.748890195667
103.980583262886
103.987982517812
103.902919589864
103.899635723021
103.799823293032
103.878513642646
103.896781242611
104.05554940938
103.906221217084
103.859588483829
103.965657172911
104.011375698253
104.021997779796
104.059514568437
104.059831614501
104.003654604319
104.046502029431
104.114900056307
104.121198156564
104.111132566607
104.06080740138
104.057900714731
104.122165426205
104.201260525573
104.215719672981
104.209511210335
104.306652178066
104.432169850256
104.333738695981
104.299328092413
104.34446622576
104.412620371258
104.387257337838
104.31093522258
104.275441274693
104.269431005499
104.372168620158
104.469021249796
104.353976363709
104.39063021747
104.529907260029
104.654147698851
104.690171973195
104.546799909229
104.429380362233
104.589847937492
104.721565405986
104.755378242729
104.537255031799
104.430666062193
104.468750788158
104.688608324338
104.709952593665
104.639263941882
104.713443341099
104.631566296645
104.526669493115
104.716776713201
104.736153720379
104.879621366176
105.012311440658
104.841457710177
104.652395766667
104.609823397344
104.703496165406
104.754736035213
104.743321810198
104.822905706127
105.022251325553
105.212159969288
105.187604440291
104.988256911689
104.703322436838
104.818028888531
104.919394120755
104.924607944957
104.949219345205
104.96483233176
105.325672125063
105.707253669134
105.545886821052
105.17305976467
105.077318217828
104.967557270163
104.973451794665
105.397114815354
105.720103099087
106.017576564303
105.826985597531
105.655737301527
105.614453285847
105.490073098531
105.328208295579
105.416136861651
105.234271041405
105.066068264561
104.99661413128
104.715189229004
104.804654892792
104.544912800617
104.355645772611
104.373263250638
104.382692409011
104.285344246826
104.343200408333
104.540277306218
104.419748191217
104.129347401555
104.17553179347
104.183184355577
104.118859917882
104.173662005407
104.222926373377
104.062433693439
104.050776301941
104.02971748579
103.873138701362
103.947425667906
104.104183517529
104.099035384241
103.984908454036
103.929102719146
103.921225090334
103.968711568944
103.965154398575
103.956759714255
104.01709168596
104.100896293542
104.027729894268
103.883223695994
103.887436496428
103.87573782506
103.904117389965
103.987805686854
103.892280332776
103.80040188344
103.97249980527
104.006274454658
103.91264995135
104.081911911311
104.106249091069
104.028118356113
104.086863301405
104.20439837866
104.240593101592
104.279791856554
104.178968298628
103.965302142032
104.083519071313
104.565178906144
104.641639573608
104.479569682514
104.747921182809
105.103498649544
105.068389017491
104.757574132523
104.611269139402
104.701695697679
104.652607670589
104.767033774545
105.012099952535
104.985072922864
104.757491160412
104.335603266142
104.357349156553
104.699891147418
104.870857603279
104.876023816313
104.705034756369
104.611409207979
104.916896762114
104.943937065001
104.990082736082
104.991581034958
104.572784150351
104.244689164545
104.137806252141
104.157279670853
104.146839508771
104.323239781552
104.275362456707
103.964430863701
104.253710724666
104.317906084175
104.186599578715
104.142706399363
104.26688426707
104.461616654996
104.610801902626
104.931513353859
104.81473269017
104.512296221371
104.362836668725
104.261192979197
104.365065116767
104.253397483061
103.941265454363
103.869216753308
103.964710659778
104.026542811597
103.718810317368
103.398200106323
103.497698753523
103.533619828129
103.586902831733
103.443993471214
103.403740375405
103.294528065763
103.132517729429
103.277516538802
103.313129370859
103.323720849199
103.128153869139
103.068299499551
103.211310131722
103.311070242028
103.156360037344
103.129208210609
102.907481461643
102.892167377744
102.899592722656
102.999921082414
102.942663146378
102.90535245303
103.048860017237
102.95362863979
102.84811272163
102.834109869777
102.964795198092
103.02715699452
102.947424129149
102.954803531227
102.907374347375
102.704698254684
102.858049102273
102.988454785055
102.779546267334
102.719129781963
102.686319341293
102.792260425643
102.864857963073
102.916215337317
102.863400761384
102.873540899085
102.827095039278
102.838075278269
102.798811957719
102.520504212253
102.284752011471
102.285813210876
102.533797454173
102.609070776685
102.607926578892
102.665579753602
102.650265956191
102.682952267504
102.670849259177
102.626687354554
102.418268294089
102.42392584749
102.043849387009
101.943133296782
102.010123815782
102.213263786012
102.347486175621
102.341298797795
102.30081803342
102.254552995442
101.903595123631
102.014072007817
101.802152997347
101.792933607755
101.877595380947
101.978101516781
102.120917689552
102.129626841479
102.174725583646
102.140986243616
101.933167108942
101.771450079012
101.817527154019
101.99340928414
102.035738468342
101.887147680056
101.588435257187
101.568353290191
101.646168128223
101.706117202257
101.522650717159
101.374278219046
101.347595176684
101.68425566683
101.698183776765
101.668450595399
101.573651213323
101.596783933488
101.519575888448
101.512876358794
101.385150967787
100.958478647748
101.098332576344
100.853990381659
101.219338703563
101.2794756289
101.131454847435
100.918589559919
100.901194633403
100.614606341345
100.79632322069
100.643854792818
100.213790619208
99.6054680182051
98.9940010552757
98.8176530818305
98.4232643669701
97.7102855974082
96.4442721981685
94.979041635026
93.6949841432842
91.7523978689043
89.5862505423858
87.0216133584576
85.8341154660372
84.5844260698088
83.1255022734049
81.3501807916688
79.517785079411
77.7086697068416
75.784028933463
73.3929665312182
71.3235021333481
71.1303716836035
71.6858890475576
73.027789048692
74.5130987301629
76.4468350284297
79.2769289196046
80.5818412047317
83.673743617067
86.5183038622569
87.024031459214
89.9471043929076
90.7433340634808
91.2812971177261
91.7274648774369
92.1774970011478
91.6066728054485
92.8033291654794
93.3163790527289
94.2272622584306
94.446281356905
94.5558437320327
95.2022433733984
95.2497941780462
95.2822694094546
95.7569783247752
96.4937036464399
96.7606258878835
96.8492910438519
97.2154601539322
97.4359771721722
97.7551937300624
97.0798600738063
96.1928804833732
96.9748221220088
97.5453585106949
97.4773416392749
97.3381744920758
97.8268385959239
98.3822157463253
98.6415632013513
98.4691633746659
97.8385927614041
97.8379841245586
98.2909426558323
98.9546457149034
98.9411300512682
98.8661320808282
98.7513324314308
98.7052725924453
98.8929763330024
98.9549232056283
98.7579066494639
98.5197871870683
98.4748920945906
98.6996652823364
99.0152589854506
99.1182745673754
99.3382917542135
99.3519950810501
99.5214042023306
99.5861228109041
99.7958142333571
99.8397804567178
99.8510814056961
99.7698344615501
99.8148679719958
99.7518929559982
99.8006299012199
99.6913521743092
99.5614504710319
99.1221290618695
98.7842406483796
98.2361940161381
97.7878940883005
98.0601110829182
98.7696335240779
99.212129679401
99.3488910778669
99.4821640733894
99.6385903680553
100.008160691726
99.8608694122939
99.3309454346107
98.6878267953224
98.49738643695
99.2185157991646
99.8585066739818
99.698901073489
99.904517702258
99.7485902301412
99.6811228576672
99.1365879095469
98.6145568094295
98.2474585153828
98.8806837634348
99.415705033458
99.563826128777
99.4004722790252
99.2955974224877
99.611437523796
99.3407808281835
99.0979105065268
98.6277358153366
98.7859354456353
98.706530715719
98.6920636538813
98.8513765902664
98.8833387163402
99.1438588427036
98.7010391075999
97.5353518772666
96.2306066195175
96.2224909999874
97.5095639542514
98.6682923341835
99.2334105007769
99.4496730246278
99.9373023919396
100.204055147484
100.106475005549
99.7005942435698
99.4999710802395
99.9442897447305
100.18339667695
100.205537104823
100.020971095237
99.6952180033784
99.4164761109781
98.6998743153527
98.1218088904326
98.1524705358237
98.560214462503
98.8786398592043
98.5296049655303
98.2531506978198
98.0457837741681
97.7577548487112
96.5331688257234
95.7558128227869
95.6911059934244
96.274943416016
96.2925603121406
96.4173226219204
96.624862827731
97.1553528453922
97.6716108811443
98.0646259836932
98.0918847793108
98.0723187624285
98.2681183553722
98.7102123595994
99.2682574364979
99.3960041448342
99.5832887570619
99.6199613934605
99.5608759434649
99.3056400957757
98.8451606764598
98.2416021868937
97.428068282029
97.0885154220351
96.0136772980383
94.1801340738483
92.4249473135112
91.6816338061625
92.1849087966131
93.7252495393937
95.2228723905054
96.0678084765415
96.4966490144628
96.5330574796368
96.8102437190265
97.036630608151
97.3465358574886
97.3143877694155
97.2025292668005
97.2981222426496
97.5986286547793
97.7101858557848
97.5495022703211
97.3513847525028
96.8998216761351
96.5327456788961
96.3546780038269
96.5084981815759
96.763034182914
97.2244629052935
97.7176059151177
98.0748499785723
98.4014976777338
98.9094203630748
99.2051082067372
99.2538831594548
99.2447821189551
99.2873650147227
99.2488138924814
99.1432428828159
98.9795452567749
98.8283064398087
98.5479582499228
98.147512194616
97.7802948917163
97.9247394596133
98.4342940674577
98.799105651367
98.9625119526389
98.9486559011664
98.8335232236967
98.6376768306315
98.3710516418875
98.0491931540013
97.6897542557283
97.3460837726112
97.0893862620514
96.9034464278098
96.7021365054619
96.4645845038164
96.1885611818068
95.818171977375
95.3832204428813
94.9958194999285
94.5551444819237
93.9547836329334
93.1557334900881
92.2522725602676
91.3249814476294
90.4842701963654
89.7245355027336
88.9977186891773
88.2706049015717
87.5637868859343
86.8058206929087
85.9827749739094
85.1125475176915
84.2103045865336
83.3067177684838
82.3853241002925
81.4353286234062
80.4500809195184
79.4062897805064
78.3230254847019
77.2440765772463
76.2648024633532
75.458360653627
74.9067917614485
74.639232357561
74.4655662887346
74.1731672311265
73.6930641416066
73.0211207640111
72.2122281141828
71.3037145583882
70.3791712737732
69.5756457093699
69.0427811946324
68.7904588684548
68.8692255493776
69.3856979612282
70.3880559602966
71.8161289554335
73.5894097305606
75.5916232295985
77.6171561366929
79.4779882154123
81.0829606203652
82.5092054526368
83.9394798327796
85.329380042585
86.6190009782115
87.7994853183564
88.8547831299751
89.7639633746002
90.5905989823423
91.3563438922132
92.0365060612583
92.6231029096436
93.2004696665538
93.7622211399571
94.2819745545878
94.7604149465471
95.2098911781683
95.5969716207469
95.9092737681487
96.1296241497768
96.2190553277632
96.1601398981432
95.9712834150493
95.6607059768732
95.2931254079792
95.0157311566026
94.9758233276371
95.2056992399894
95.6828234660972
96.3000519546115
96.8418438634591
97.1768663297896
97.3079722085145
97.2962921348539
97.2282545533142
97.0668173388995
96.7911548042882
96.4526038889151
96.1077661144238
95.7303549448577
95.274106288285
94.6881318531211
94.010764003072
93.2956610505874
92.5646217702831
91.8252528959364
91.0955655087517
90.3454313268485
89.5251522955747
88.6211340646406
87.6542812758786
86.523073204206
85.2225406699253
83.852453934602
82.4961361081253
81.3078194000728
80.5046222423389
80.1803412110726
80.3742599163251
80.9480477533821
81.4145402091564
81.2002727790506
80.208151698378
78.6910100961054
76.9926720068554
75.3774770725394
73.9670444494893
72.8309707940045
72.0808496820255
71.7414726336462
71.7030432485521
71.8810434143168
72.2655969048606
72.7382404056764
73.2617223390389
73.952094733683
74.9712912001462
76.3660489220063
78.0505256978842
79.8402685336271
81.5525013460712
83.0889979171473
84.4236554374763
85.5514045327729
86.5666768656152
87.470576350223
88.2187623072588
88.8204964558987
89.2971589044197
89.5902637244391
89.683964410676
89.5911158426931
89.369974403134
89.094094528361
88.8080862126345
88.565489712574
88.5066221989133
88.634332799237
88.8943778277306
89.2805897152447
89.7125548609326
90.0772342464896
90.3804783262609
90.6201521845033
90.7865229063117
90.7323450751332
90.073997461692
88.3359491810298
85.3626481499258
81.7007792156418
78.8833297396243
78.8226822145685
81.6635985123891
85.1589181829311
87.7951565706645
89.55402025062
90.6956717775162
91.4838008385776
92.0885437406684
92.5377283566026
92.8916304253192
93.1706410671034
93.3792042945496
93.495657183442
93.5252342990837
93.5009164559158
93.4806978600163
93.4617602610211
93.4282490577984
93.371011188986
93.2602325873479
93.0571897440337
92.8096395632146
92.5710077996396
92.375278503757
92.2230878540412
92.1774714264815
92.2325407399501
92.2882800530623
92.2863994924047
92.1599802198321
91.9113403561039
91.7787911723718
91.9049598262891
92.1948367970788
92.4733356419597
92.7367044735818
93.0553965781418
93.4437950933729
93.8697997425813
94.3009723977841
94.6735199507088
94.9861115012373
95.2024756448603
95.3332526023131
95.4728667021038
95.6541564819385
95.7967201182638
95.8937831433397
95.9665005457692
96.0897350134397
96.215725256329
96.3085630399443
96.4219140740217
96.5135929353065
96.5297154001051
96.4751813660443
96.3516027448528
96.1697811943668
95.8704664101372
95.5228655647243
95.1771079956762
94.8883111411432
94.7389139456935
94.7083156645667
94.7051149297995
94.7086735175515
94.6848387877569
94.6410981023923
94.612759745959
94.4928355937335
94.2037878731885
93.7547496878484
92.9972419851916
91.9435355428812
90.7418350424955
89.5880542980619
88.8360770636494
88.8775197475799
89.7224734554495
91.0081057228449
92.2032175285256
93.1565154583373
93.9095076285831
94.3472473530384
94.5146185293553
94.5830158412789
94.6187553024385
94.6242984898205
94.6108324930333
94.6713676426814
94.6694326458748
94.5508166373187
94.5435560642862
94.7733628234749
94.9304171424263
94.9771262093771
95.1876991547679
95.4374233454518
95.5451412741129
95.7331622971923
95.9644718992988
96.0528598812676
96.0896955255226
96.2626835779258
96.3829405233553
96.398406339787
96.4169066567311
96.4580438002884
96.5669336267478
96.64515948703
96.6308132274895
96.7011505342957
96.8646808822605
96.9422166090587
96.932573767599
97.1034329735325
97.1220511352086
96.5570188860609
95.6380205326468
95.1818301377195
95.4321179079759
96.0014254405752
96.6499901419521
97.1802091254039
97.5299554627218
97.8075599535132
98.0045799815771
98.051137521427
97.9921697287551
98.0638046238448
98.1855958124912
98.3630127402596
98.5994236438465
98.7474195102168
98.8210887106092
98.9115652210512
99.0597074316445
99.1052777412406
99.1030080694048
99.1460329842584
99.1304739634122
99.13448903515
99.1102317017308
98.9879380166461
98.794230602655
98.4139807863062
97.6261163680193
96.3703520265674
94.5635895498884
92.2137078734614
89.3855994334533
86.4257883797576
83.4917635251603
80.2371840977835
76.4125580347875
72.6466321592937
70.2897658836145
70.4378167147127
73.0253880953985
76.9862788513693
81.1346022583917
84.401686777738
86.3298312376443
87.4187559067864
88.1597907550323
88.8259636065624
89.4514226667419
90.0047904825996
90.5846576786825
91.4940364608829
92.4657808035368
93.1221655321647
93.5725139954438
93.8825197278726
94.1927220493192
94.3529009350775
94.3814733252862
94.447516722832
94.714899773787
95.0505056300419
95.1635648737338
95.4255336098504
95.5372532823238
95.5061311273603
95.4074949798692
95.4517036047907
95.5342077913149
96.1071436145279
96.3719792282294
96.2280908861105
96.3630241071103
96.3632883911284
96.1428044896525
96.0249823460185
96.886371934873
97.0486397395307
96.2482606599702
