1798
3999.43349933624
650.420452594757
1
128
4
110.844253395769
110.935679120734
110.81292516349
110.655046893959
110.761655661451
110.784998300264
110.677318296474
110.631532405616
110.691588305523
110.73762877139
110.715674668124
110.689579073648
110.612044254865
110.697378516005
110.732433155924
110.730874886412
110.676421282363
110.625992267236
110.617113520164
110.605535455295
110.40729256455
110.421220489684
110.651187514415
110.677524391792
110.516664348981
110.24612047351
110.311517363065
110.499461442849
110.135163459944
110.350526806602
110.432123651814
110.233736620458
110.372569303851
110.249871485636
110.227273857775
110.280168269942
110.214114001149
110.197525262176
110.038935951501
110.367345125571
110.077056699533
110.083929858981
109.796301578492
109.972337166938
110.075060366426
110.240259687569
110.602129799926
110.536291655169
110.22846505935
109.702375068693
109.667656455463
109.464151048654
109.501595874405
109.944940280213
109.894341295714
109.733515461727
109.58706709817
110.401138870925
109.708046507437
109.02819483489
110.08174724662
109.196282992813
109.265605527343
110.208130686861
109.718012235401
109.558900880068
110.405024137333
108.729675471122
109.361281894235
109.895282300883
108.792300253521
109.648524498958
109.317033351929
109.7515303653
109.416557052289
109.137130626636
108.008549900562
109.736095460072
109.78881286178
109.545575981372
109.874163805385
109.766284709814
109.4499634808
109.215740198644
108.366052253053
108.888608665086
109.197799391817
109.237574603973
109.12617786184
109.914292893216
109.253621771038
109.226063294072
109.774885280143
108.649510316251
108.893805923907
109.86534056306
108.159617191929
109.965195030391
110.175857078806
109.746622957778
109.750741994973
108.986099768898
110.021715965874
109.335101471283
108.319652530558
110.163845548691
109.234265490411
109.066146182178
109.799272669532
109.638544662655
109.88125442151
109.96952645867
109.945552596655
109.738298333243
110.016793346789
109.735367785889
109.451017854774
110.006346353551
109.656278855999
109.986216981985
109.906253042506
109.474581369692
109.892957388439
109.081550777995
109.366556906312
109.871860861177
109.185180322789
109.650721583859
109.374025941213
109.349479086431
108.382788115515
108.597985222079
108.365506199087
109.680144536477
108.084049594161
108.071436896031
109.968135866629
108.622546524677
108.876401692607
108.039461662348
108.850054949184
108.051170247714
108.782008055539
109.179305221367
108.837087661266
109.26512242499
108.837094997681
108.617887831067
109.076163294049
109.097895996799
109.613485650566
109.280421267852
108.89790500424
108.889593240641
109.141177086345
109.354612930093
109.603919652276
109.301789538708
109.375230237021
109.587161258042
109.28823299867
109.644334152754
109.552442429777
109.149614324059
109.085234798059
108.895166814006
109.686592691013
109.153385916426
109.797330440873
109.37852715961
109.556839468909
108.531526332835
108.738038060718
109.979250440764
107.834384486459
108.845663517826
109.509501763344
109.293094817242
109.49365161673
109.573335874068
109.679974030508
109.711848535063
109.41988859037
110.161056267961
109.242074264432
108.425968009591
108.373766891637
108.73956698787
109.362495867182
109.364982706307
109.821976796298
109.759895847345
109.720182291313
109.903620208267
109.630564293746
109.988499975417
108.965344305477
109.151436050793
109.686734907191
109.37154693768
109.979880624973
109.523147979626
109.213323236149
109.609435383646
109.316674000373
108.942672803507
109.485297756727
109.129147407576
109.344797195864
109.665789678282
109.737285167722
109.825236939926
109.848968200832
109.697710941554
109.64375127126
109.788526445679
110.111505486183
110.068575249425
109.570346107875
109.637415553301
109.97101692692
109.707213395817
109.84835184044
109.904302042902
110.100904725206
110.177067729071
110.051228437863
110.048019867113
110.244962920965
109.738801093732
109.385046382899
109.428141262895
109.569942644875
109.849405879989
110.109491463654
110.270582899987
110.413168100291
110.347644710716
110.494311262058
110.545049337339
110.106011404097
109.952569901182
109.964440984886
110.375322610806
110.623312055221
110.528563938971
110.207077662204
110.11236074546
110.289825049264
110.429700321532
110.358256245732
110.271532856007
110.281244717145
110.113077450108
110.225259627921
110.242769517284
110.34710080691
110.462877385063
110.39470308126
110.472865614998
110.386028036195
110.089274106248
109.985870347114
109.930407942765
109.888476313089
110.032692063688
110.234333986518
110.235855416853
110.253620475325
110.259838399328
110.350718316312
110.491091375912
110.437721669494
110.313328010721
110.409614970212
110.387330604312
110.238085155465
110.185263426812
110.214383486518
109.951606870279
109.983982654591
110.296031836566
110.45256562648
110.433750499407
110.406674037789
110.171489596937
110.073041849148
110.193222944959
110.409539240577
110.4039792833
110.152951729758
110.205700483921
110.39375654037
110.212358910354
109.995859760014
110.202722077041
110.338556538858
110.345084359256
110.264658276843
110.346837764599
110.618931229323
110.666852365697
110.474284868324
110.325231154279
110.420556251137
110.425766528474
110.403943368787
110.435953400134
110.340730415416
110.119586113375
110.11833336561
110.174495312542
110.194803152247
110.177025393054
110.290729866305
110.180052568083
110.033253709254
110.06009293342
110.235786599542
110.353866250108
110.27354723548
110.052843425053
109.9694880041
109.969066041866
109.926915819605
109.812866281998
109.916945877803
109.982898035832
109.954986664672
109.842508790143
109.768436680918
109.798140147092
109.844430882367
109.812222910436
109.807445144808
109.856599829661
109.958788588973
109.899492389334
109.802628013356
109.69070143914
109.612972463143
109.537566066926
109.479610774506
109.465119314681
109.45815892846
109.470457237803
109.570039843583
109.590934954654
109.444071804724
109.414355165558
109.564733984144
109.436238081064
109.238028809248
109.21656045511
109.269656631843
109.249415143205
109.306746377457
109.249224151085
109.122769211822
109.104262675312
109.241566678847
109.278028714318
109.265980328555
109.261550743429
109.219709408055
109.132167143866
109.10767826363
109.121990967843
109.052378030494
108.929963545819
108.936883152429
108.970962457503
108.899760243091
108.802330748098
108.762377621149
108.793358898318
108.862053932532
108.737852581281
108.68364452586
108.725694407448
108.871100830336
108.898268458198
108.840021583519
108.706414565177
108.633598827315
108.669249002202
108.80905657731
108.697215585112
108.474374005751
108.505347044698
108.666587942438
108.641241151365
108.588353118213
108.505706713638
108.491769230366
108.544780148343
108.602539949398
108.561122482761
108.466037907459
108.408869894534
108.432712265552
108.41090341229
108.408605745877
108.382231935066
108.328281546896
108.341974275971
108.29671333464
108.341881525073
108.360774751056
108.275575313632
108.334558136845
108.312457270084
108.327524219466
108.348850615679
108.343282028859
108.396093558812
108.44871175998
108.328331995577
108.236036384655
108.251293110071
108.304542424098
108.26824048718
108.29036662772
108.210258450735
108.164080198807
108.156433868567
108.145429380325
108.147980213947
108.176925595958
108.250615575515
108.283633141042
108.208847318193
108.144848773091
108.0028946642
107.83586665613
107.898532739604
108.093260976039
108.209549552132
108.140228457574
108.047575981131
108.027161442945
107.97627830333
107.988027186532
108.112945463663
108.162429921137
108.148600027777
108.109209646944
108.023281815363
108.040375677396
108.064801154878
108.029687704806
108.018160861452
108.025226143448
108.010381001256
108.085097171532
108.107707966246
108.032416224149
107.956081730577
107.941397326965
108.022973938393
108.129211552512
108.055299531302
107.954955459252
107.959495725431
107.957076883536
107.924084609503
107.978966422123
107.996700407982
107.953290168712
107.982017352315
108.004085112972
107.981481940506
107.990033398207
107.942191137468
107.899899875299
107.929299948434
107.975057363919
108.029330464471
107.991192891012
107.94338005498
107.975763272774
107.993409452402
107.952976395327
107.90134834769
107.907091305056
107.913315431818
107.940255654125
108.024766545435
107.995586602562
107.931031052336
108.01214714385
108.008062470582
107.996354907005
107.986069459678
108.029500537075
108.064320906145
108.012986469551
107.955006881128
107.950851439054
107.892367372994
107.865602082009
107.904994609288
108.031695957162
108.011808157253
107.950284719602
107.965212997061
107.985627545363
107.998862137175
107.968381250691
107.970903091907
108.068980753714
108.038919164743
107.924395234108
107.770076814512
107.699985902561
107.767896191391
107.726063868583
107.567864658771
107.634473435095
107.737207359926
107.734437078499
107.779046051752
107.840039712536
107.839565641869
107.821795888083
107.803777015438
107.860732272955
107.897558924621
107.842165459526
107.876105565991
107.998605475962
108.072339743352
108.179734027224
108.27279402433
108.340924716697
108.363371368426
108.37125738835
108.31690103266
108.280206018096
108.307696877663
108.360570221479
108.459359087462
108.523891961665
108.56293560952
108.619075705324
108.784311729647
108.992445591827
109.094516925125
109.157031858095
109.347023299881
109.64223643511
109.806154008304
110.009135303495
110.421207037242
110.880797129821
111.228794565015
111.588971363418
112.00445237539
112.345206547281
112.557901995648
112.754590750557
112.900356861187
112.933831559492
112.868943684656
112.896259283756
113.030555281505
113.191166256323
113.451987763323
113.773872730794
114.162295705346
114.698299515439
115.231474012704
115.803625140231
116.573404880233
117.511882146359
118.418724482388
119.106611497774
119.509359274946
119.702125838308
119.559670205577
119.038884309725
118.299818695271
117.405277156741
116.461795270148
115.654757157808
114.869889557963
114.181018900339
113.687462732482
113.345808114404
112.946278402735
112.538078239629
112.325644570824
112.183234519294
112.069989570836
111.905392210279
111.589877022539
111.329790130353
111.110655640612
110.874424039135
110.574106695083
110.265961817413
110.135854111883
110.180515856997
110.21015610613
110.274175318453
110.372929711015
110.344099048911
110.261690466057
110.307074766756
110.59014733658
111.030871294306
111.608719268822
112.485595775733
113.422400255133
114.238952359336
114.752447172954
114.729889378153
114.167999702526
113.238374470004
112.177699370644
111.171184381311
110.280864891631
109.567569693454
108.994207196544
108.560925049399
108.224708937932
107.969261552746
107.806652148885
107.679276293231
107.504158093136
107.380634553564
107.301143810079
107.184309225074
107.003425400038
106.930790208275
106.95216006267
106.904873257653
106.781749922978
106.747908468703
106.780282287675
106.791216798306
106.717156408548
106.71431482274
106.701099344104
106.592414754003
106.545721881046
106.548697931933
106.505550553152
106.539573839453
106.523456471278
106.439993125398
106.41042962574
106.444687523339
106.425846207647
106.362530802333
106.372181654608
106.38555353978
106.34167140618
106.321002722432
106.283066052983
106.274775537139
106.298544891844
106.357691201685
106.333452348961
106.262820948418
106.262985299362
106.284534617577
106.286216489334
106.257221240899
106.221178818405
106.257964204874
106.254161290464
106.198591218215
106.172571065504
106.18270746423
106.191772762145
106.144492106966
106.118971794314
106.166773359083
106.204475213303
106.196495685873
106.15090931097
106.160076879247
106.162961232803
106.115186614842
106.041200200466
106.042287520149
106.067664375637
106.067556661549
106.098542169989
106.04528335398
105.941345831185
105.990180343463
106.065031127571
106.070618025739
106.01484760697
105.99065340472
105.991865567747
105.964429983104
105.949146962365
105.997964522634
106.003688377321
105.997431336901
106.000501558262
105.985083837439
105.943536080032
105.93852301427
105.969470317894
105.926226156114
105.908818589375
105.990250153156
105.963060448356
105.901631019418
105.936990848064
105.934326760569
105.895568806891
105.914579168214
105.944192753767
105.93624522495
105.934165675108
105.928992478829
105.868326336414
105.835770162471
105.859728050318
105.875305860919
105.873011626021
105.881385760931
105.912380310454
105.905716746413
105.869662821796
105.905619739917
105.880178971819
105.879451749313
105.928434171945
105.92563739046
105.87969647151
105.86480823755
105.865360204925
105.903333508035
105.923894158612
105.910238132015
105.835827878449
105.780643680216
105.88423529815
105.928969932609
105.867219711809
105.854393570633
105.884566497358
105.92582491236
105.902611908477
105.798729198831
105.715430480081
105.788232834408
105.851287060802
105.852459829932
105.89676551577
105.921708604979
105.808208538801
105.73622094688
105.757684465282
105.85202410014
105.836760811811
105.767506699834
105.750917007824
105.787124327027
105.75932593024
105.743975312647
105.76878331658
105.827227398361
105.825627448096
105.766894320215
105.724099688802
105.70719759841
105.643800482474
105.67250515244
105.720612965665
105.687493188538
105.713133378276
105.796342632045
105.701550332961
105.620030640869
105.678628779718
105.703658726017
105.658495368555
105.675289121481
105.723476860562
105.782764080286
105.740987345367
105.632194424919
105.52679144196
105.586366808745
105.63013170853
105.634528413272
105.586062466668
105.522687679389
105.500721585797
105.444061122705
105.407793496148
105.512580902489
105.533722456551
105.412945983249
105.351718463292
105.478078497693
105.50646207018
105.482530076078
105.47001967465
105.386706155404
105.323197305833
105.351282600584
105.393790730642
105.348140967246
105.30531735311
105.305721677491
105.283132762702
105.315635527321
105.343410441025
105.241000141417
105.067534093202
105.084750806179
105.232240886059
105.209599372125
105.183886851781
105.255868026003
105.347912246577
105.366676696309
105.273546801826
105.169320117171
105.21282118683
105.26156960574
105.175409694581
105.184848150834
105.206754888295
105.184893955951
105.236156284007
105.289886696002
105.22233598092
105.102073356059
105.139286381671
105.235608403254
105.178213846102
105.09969170318
105.044702375887
105.058064053498
105.054389351953
105.057410789487
105.003560623869
104.995521145948
105.001605770997
105.022999055236
105.112896339438
105.106796304466
105.064064365208
105.087992071736
105.119900191128
105.101498926633
105.066370604389
105.00400014074
104.97271141574
105.010053993739
105.021803261952
105.061268413636
105.037806602955
104.941224774518
104.910634042799
104.958393956499
104.961902907186
104.85971703518
104.776336139898
104.674306742139
104.61622555076
104.788078400844
104.984164676385
105.14280444702
105.041723543717
104.309591937513
104.317678648341
104.784430289392
104.592560957752
104.731746435814
104.701083984976
104.792280510511
104.682150109596
104.705473054729
104.597191361533
104.476247455547
104.271057938911
103.926426687133
104.000344295749
104.214318209108
104.282182284061
104.288513554648
104.583755325718
104.898738070799
104.606282194702
104.139779806828
104.49457777773
104.556963922319
104.365166869056
104.426557563137
104.272686306151
104.339982734011
104.320500533738
104.471855460255
104.346494936196
104.269022507766
104.35512719712
104.474444051425
104.511561281426
104.510288226352
104.440543435665
104.333260107024
104.323629304869
104.434454851062
104.549479254936
104.591662478069
104.530022961753
104.586368104544
104.673090529745
104.705091269003
104.742076011106
104.804307949049
104.847215246013
104.920436894745
104.836780501431
104.858522177668
104.907977761445
104.87665701366
104.860059750604
104.921369861239
104.871096725583
104.834137640792
104.978109115483
104.98500494971
104.695518637409
104.788408918979
104.935091993561
104.947549029609
105.105683130827
105.138719717751
104.878920831121
104.797678031407
104.977682919885
105.200655854442
105.183614579768
104.966663583324
104.888143276268
105.113320436242
105.088624461935
105.104446551422
105.26503430732
105.337739192158
105.342771905601
105.424530964381
105.374453503294
105.1457685738
105.160171595655
105.076558381147
105.054326372392
105.188797311777
105.333913118158
105.609567174061
105.603103013107
105.589682292249
105.78861087483
105.660197709224
105.628915651016
105.426713652635
105.010438857221
105.211302849938
105.439947856755
105.529880457272
105.599619315183
105.558950710953
105.885618701692
106.167263819101
105.973561030915
105.739569459924
105.745684617027
105.734963611661
105.490756294981
105.511448821761
105.857248571132
106.575954164873
106.608421798151
106.176844971435
106.478462271959
106.570956612368
105.854667026297
106.32218521589
106.846962743801
106.286564428532
105.597589769372
105.387552678608
105.331038399157
105.180013076307
105.209629676255
105.138474942656
105.111769513723
105.211799263387
105.088095366974
105.296891335263
105.147417761128
104.686168095126
104.686393286771
104.670831843699
104.471460230634
104.540893496664
104.611771985685
104.553350609709
104.624757578994
104.578038337146
104.401369695008
104.455236980681
104.592951736037
104.534377476183
104.451765020944
104.466410370582
104.434645661606
104.521847435841
104.544491322222
104.50846032168
104.48354772848
104.489465473722
104.33036733425
104.258935202835
104.37695080107
104.498020524094
104.474110710787
104.512167822925
104.545418441835
104.392525704059
104.378192370316
104.436342460443
104.534865890498
104.613411639761
104.510168515632
104.48978725997
104.563203311062
104.605516112226
104.670434579627
104.618974156612
104.58449434706
104.484645159725
104.524171361767
104.886592146248
104.896400218294
104.929930488733
105.200814309314
105.066214536604
105.027143164716
105.051502372263
105.085206789138
105.173374032236
104.96129740418
105.184391319727
105.522159576337
105.336226977483
105.381260648046
105.08789606574
104.80644424207
105.221257465
105.139922731062
104.953937396425
105.133274343638
105.357993219488
105.59319437975
105.203742670142
105.02762133297
105.013395546388
105.072752357211
104.982663737329
104.643402743984
104.629209239783
104.69289366546
104.824675559502
104.529316333759
104.395962359268
104.847117740799
104.696533794205
104.599695468455
104.838600267104
104.917768311668
104.697814178725
104.626455871344
104.710327477972
104.663839457004
104.803389543575
104.946605221527
105.060664581364
105.079649684598
104.909927932273
104.904486271873
104.955104298537
104.802435198354
104.672781939321
104.354639319798
104.318045654709
104.402824343869
104.322031573244
104.470535528405
104.38282939523
104.265204369245
104.047592197904
103.829452744785
104.021553234022
104.023555851719
104.051683593974
103.810597874297
103.806413520897
103.718796043113
103.700500574912
103.628412785783
103.605978341266
103.385617992783
103.511169311484
103.393776785148
103.285073786874
103.280459073505
103.347388100459
103.496588988912
103.346537833476
103.25211090827
103.291497306448
103.36016934106
103.368424100102
103.290077129856
103.26103542753
103.185382876665
102.975182634041
103.076389700815
103.140566625294
102.907230696293
102.956229333748
102.919128939735
103.088893716691
103.183783616148
103.242150753903
103.186189346541
103.126347292324
103.029202079498
103.072716003163
102.96112071875
102.574283937421
102.336054073698
102.498530822504
102.814480071475
102.960172482196
102.946488021609
102.945816870224
102.98404068337
103.068942258666
103.057463954385
103.130406216089
102.95151090807
102.898650565374
102.338034086501
102.374891935913
102.539285960311
102.805576210033
102.929605850411
102.927844309246
103.001610846976
102.972735940232
102.407932932528
102.617341640666
102.44279273161
102.568174341576
102.779136689356
102.924770855172
103.055929571717
103.060909699924
103.151274331386
103.093921548785
102.805125495954
102.681479173413
102.717039629651
102.922452219354
102.953045420877
102.716010976922
102.330505694958
102.427286676975
102.629290604162
102.671993147466
102.354857519719
102.338503777014
102.430266027977
102.863346333523
102.873042288042
102.910358362917
102.758944160951
102.898784326726
102.910535702237
103.001572791268
102.737724159259
102.198696728069
102.556996164988
102.353513361735
102.965946146297
103.202065283049
103.075402946655
102.991823781956
103.239170305702
103.022873413164
103.523023488471
103.753964955143
103.580540333178
103.325357963397
103.241179939835
103.953912795428
104.550316354434
105.197471935414
105.370059804628
105.934779103209
107.232555258217
107.007681095223
107.078725271728
107.582665449473
109.27031789164
111.070770383385
112.780543481252
113.910602866225
115.334926311367
116.739883835826
116.980521663057
116.235810063684
116.410171524704
118.784829202804
121.265567817507
123.256835960657
124.190710967473
124.037732315918
123.084182369695
121.050428017363
121.542222820858
117.035996461227
114.644436871084
114.485093732895
111.953602951901
111.28013358498
110.451394131326
109.441603828909
108.386038602641
108.616869052064
106.401132958718
106.781919961285
106.695523964398
106.829921187656
106.800316170187
105.513931664016
105.17074649733
105.099288482687
104.862917368336
104.68140220146
104.690473192763
104.439916398726
103.97676238328
104.00436259094
103.026432952999
102.426240915698
102.658677661799
101.767286853426
101.62624065321
101.786169958408
101.993762680894
102.271579039617
102.558136927657
102.24761898802
101.480785403544
101.618971870509
101.702571215891
102.12179661053
102.10371634997
102.091384861339
101.769922277364
101.609228344831
101.806918320472
101.705613922924
101.453750019469
101.587121172439
101.865165685022
102.085539923914
102.333866647883
102.195857611846
102.214816441145
101.993992429025
101.966221919953
101.791675137405
101.837902362292
101.713230207481
101.629389617946
101.441208941734
101.454148525101
101.363484503273
101.475586447126
101.422787542804
101.520405083721
101.485364954074
101.98312499844
102.244883044963
102.327013785347
102.634804656168
102.512605774256
102.144447335392
101.877929431482
101.58702857801
101.340018656127
101.548458177416
101.087497024827
100.16592615045
99.4880871654945
99.2552142727885
99.8918822191614
100.590678723336
100.388619134138
100.67072397812
100.37353340546
100.130739344726
99.3535435272267
98.6764815432906
98.3115578546417
99.3893326620807
99.93950964346
100.021207749365
99.9903845507296
100.032149183863
100.408619653564
100.075374525878
99.8192033964859
99.0849638532458
99.2766570477472
99.2348164801674
99.1849687873214
99.3787900749884
99.5504870308968
100.066313186538
99.820544376508
98.8301887297496
98.485933481139
100.58509355137
102.245449513134
102.590416871896
101.969707624626
101.145226732465
101.095540319607
101.064302301896
100.693935268539
100.072960519889
99.9899029578749
100.778015578722
101.215855341617
101.41709821
101.508311591406
101.468538535724
101.473265512241
100.916948493332
100.668026836382
101.300156882385
102.306846758759
103.12241956522
103.179769020358
103.425751702064
103.612029427977
103.602720396486
102.477620350464
102.267742056554
102.917077017247
104.306339523967
104.70047880403
104.925588105532
104.740247978332
104.670214815273
104.573076291147
104.511646721534
104.039585261696
103.586993894215
103.159943712453
102.873452297491
102.929119954575
102.571141899952
102.379170166571
102.106756122013
101.911691761969
101.638933737363
101.2156257113
100.86448133444
100.690380684029
101.620549467785
102.462916100467
103.486318334242
105.0578951767
106.649785819558
107.303992950378
107.055630263204
106.194074082106
105.351980450865
104.450645505081
103.459393737256
103.27887022435
103.254333723452
103.472147634689
103.288007942712
102.991012789982
102.915349315446
103.194812589141
103.319568085826
103.290335195471
103.454728819261
103.413181985459
103.464779405669
103.649990646009
104.062100107974
104.233129568925
104.187599543368
103.835413773474
103.174747670302
102.503412389019
102.422385980141
102.441610839723
102.339688278822
102.214488180527
102.21831519994
102.219298891186
102.236317467752
102.300486411989
102.498418847124
102.577507396588
102.471826643252
102.267002574387
102.452486345274
102.822726407106
102.843780711795
102.655624271513
102.490863749117
102.437344755009
102.463185518318
102.526993991637
102.597226403673
102.670431423621
102.749022572436
102.897793336192
103.097601943986
103.216997534459
103.313635968664
103.490922032315
103.683792520585
103.85402777141
104.058230013434
104.21659193595
104.343260221064
104.494815641717
104.755010155497
105.092713325921
105.469600880335
105.777196987627
106.011429460218
106.207765977116
106.488178416051
106.728772074123
106.875928943195
107.041385105604
107.272825232605
107.494601890835
107.704850846022
107.889467128136
108.092750745698
108.337988274467
108.656043081542
109.086557067452
109.641757951194
110.223890043549
110.805966836989
111.243613739342
111.379755426664
111.311136585543
111.209382763609
111.073553478423
110.978149148241
110.923199345676
110.89370343172
110.892636540725
110.97308931613
111.023090173805
111.101237769329
111.213746948577
111.40832389203
111.614532906846
111.704947842484
111.551555764158
111.164503536405
110.637594684007
110.090807344534
109.529375827714
108.996429847748
108.437470658822
107.877866886728
107.350945645549
106.889179950059
106.496414712421
106.175623626277
105.873732725884
105.619743179064
105.385032442844
105.156121910627
104.933781974191
104.75967351732
104.597578647746
104.457358578656
104.311826989984
104.143152462968
104.002382457758
103.931666457765
103.914216134855
103.98106736805
104.138500102914
104.354278200014
104.618514089955
104.903290159267
105.077844009081
105.051900477592
104.834960043848
104.54574277963
104.267578113465
104.036366685189
103.859670434879
103.758316665548
103.710450307357
103.729971477493
103.791573867991
103.901455521751
104.032761131696
104.160627447221
104.295966409518
104.474383473249
104.669393685254
104.871272465758
105.060423999299
105.238474005544
105.389245010123
105.495501317738
105.563303152287
105.676689122127
105.842231617858
106.058656661821
106.339313006923
106.735004653258
107.211392642483
107.745659027089
108.274615309176
108.661235182304
108.758819990623
108.545101222977
108.12348458702
107.731441990098
107.499218534142
107.471161175786
107.582115611691
107.745442445849
107.900144116883
108.104357675602
108.308921465546
108.407338295858
108.434635481363
108.454013977443
108.438213068636
108.469709957478
108.486976842847
108.496668172055
108.514254021046
108.427157353096
108.182855976818
107.819277062017
107.391517615699
106.992273310637
106.594589468024
106.227791382487
105.896641201018
105.587963714665
105.327398558498
105.135860485802
104.991981751828
104.945516501612
104.930170391528
104.942176282048
105.061086528685
105.252827682936
105.416973307009
105.549071503943
105.596660846537
105.607986137875
105.59577482725
105.546078067679
105.427880067624
105.29649055388
105.139352907744
104.941707519969
104.738652623029
104.580194369618
104.638675507619
105.087536440312
105.918139737651
106.983939970593
107.815477263162
107.870114427902
107.175818293113
106.298920013269
105.495521281496
104.773319988075
104.169999213378
103.712126712243
103.361195168338
103.101868192196
102.919414623728
102.804427048722
102.72689832334
102.719456985459
102.774360586794
102.82503378989
102.850730411397
102.909197140076
102.971232050655
103.029357838367
103.102578512489
103.235224045064
103.390376385016
103.487757492804
103.529306124427
103.605135913918
103.61686733629
103.551692502867
103.520448496539
103.533817308072
103.578661506499
103.690398082488
103.768549510495
103.738244874375
103.593375915679
103.427959163383
103.309256665951
103.198304541969
102.987538410734
102.754171958869
102.559602641537
102.416934787652
102.283474682158
102.148305381927
102.062506814335
102.046654857117
102.030825345485
101.999701067319
101.955963076041
101.931486406574
101.873656001592
101.835304000753
101.818914177617
101.79189689864
101.782685023374
101.793004301854
101.811945476133
101.87248917644
101.954389616437
102.099002452527
102.300511048615
102.482028764079
102.593085837783
102.716707208337
102.807537439517
102.830775941957
102.797828618851
102.767125934531
102.744760014813
102.702888443794
102.723134765525
102.852016173921
102.973761676247
103.148564505994
103.44413640248
103.816869814806
104.104404312193
104.182563239436
104.059934643365
103.770664580902
103.328548282152
102.911459313966
102.700226334449
102.568541259696
102.346296020874
102.210257936376
102.169628126393
102.183275439114
102.218085417075
102.297663199204
102.317893719006
102.248209736472
102.197319132706
102.294694501801
102.34220799406
102.266887702269
102.188381927859
102.158234681147
102.127683653049
102.146195594856
102.170868673093
102.132810265665
102.070872372428
102.180496919891
102.328533567296
102.3953516817
102.435947336812
102.472225871141
102.597977738164
102.754486668503
102.778543594242
102.828846477237
102.947756120671
103.033324357802
102.93654774546
102.826635102135
102.744961368482
102.696130192826
102.821918709559
103.061734089678
103.008007285302
102.680761395658
102.336902900594
102.007674417399
101.663211460636
101.429039543471
101.272624640846
101.156948615558
101.109818818612
101.108221688611
101.10543775892
101.07478800315
100.94281800069
100.872633286631
100.884790471103
100.909027796513
100.887362288311
100.780604604411
100.700864040358
100.709426560853
100.636765893088
100.557156476868
100.588756191377
100.684335958576
100.754297393288
100.84543217011
100.809599684605
100.748767547859
100.949459993007
101.306712661693
101.384187739046
100.997723435274
100.438309465995
99.8428272852928
99.0515779428591
98.0973607707897
97.2381207757258
97.4007143727818
98.3955140915749
99.173826644634
99.5381990591891
99.5265942027946
99.6781211579024
100.212271525804
100.334092447946
99.9661271834377
99.6659564064681
99.5220932973601
99.3333806628108
99.3391779463592
99.3709982288951
99.2642101178202
99.2962487146601
99.5783746410958
99.5561256755939
99.5807192176288
99.7523651924763
99.6642138562767
99.5455758072392
99.7726658519832
99.6490980502443
99.6743538477389
99.7309656673542
99.5121991784844
99.0017711913803
98.9436234768465
98.9811612033445
99.4394046342019
99.4014805501451
99.2526381925652
99.4098805760391
98.9542861676644
98.4033708170755
98.5934495136167
99.3985752354206
99.1577909234247
98.660044164093
