1798
3999.43349933624
650.420452594757
1
128
4
100.023476210738
100.039287897348
100.06536938873
100.134792098265
100.17943607624
100.172258370413
100.127256676006
100.132890192604
100.215541454198
100.142286366766
100.09177888318
100.049424870325
100.073221502068
100.127437790367
100.103129525398
100.009615263334
100.024242484581
100.167459939783
100.28112839021
100.164915629886
100.028858661011
100.050301875992
100.066036110105
100.075555929903
100.115229903382
100.074388467849
100.107506015323
100.176155881361
100.11474091869
100.048335003346
100.080291976628
100.105308479118
100.102239801212
100.098806559719
100.059597290441
99.917399512228
100.008103481581
100.132581281728
100.08904697156
100.074165707497
100.127427027047
100.153944103033
100.070142112775
100.057553499167
100.039594864487
100.068010979855
100.095379752088
100.155071546003
100.154224938384
100.17786382223
100.153613311017
99.9087313466136
99.8533335444655
99.9012419421753
100.044793370355
100.142125682869
100.17267228378
100.089931892458
100.067522843513
100.329675511717
100.201465645339
99.9707197582635
100.076815604886
100.145643991995
100.128320737379
100.115750672443
100.161337117382
100.129185960981
100.29373481952
99.9526666180472
100.021643165267
100.175306305978
100.150173078717
100.099574284572
100.087184661298
100.148524143411
100.32788845962
100.356842303338
99.9035791868181
99.8861884682085
99.9210519601405
100.108361195751
100.349511072924
100.320454267727
100.218270910323
100.183817628946
100.063212863227
99.9140689096913
99.8551399607366
99.95245027411
100.050580189545
100.201488280489
100.140746584603
100.204404227552
100.310379762194
99.9547459822243
99.87818999555
100.035949862305
99.8863189011269
100.130221163004
100.196635973229
100.300476131477
100.276761720962
99.9440628516651
100.108705104103
100.198705417476
99.8737356625693
99.9832557833285
99.9560115092102
100.015079373908
100.04462738908
99.9191457796529
99.9551857276419
100.112510291419
100.122620230383
100.034514759888
100.125970732709
100.134366114268
100.009388262266
100.101402428887
100.175738271778
100.255330919854
100.229738595504
100.113095430597
100.072584013291
99.971901857929
100.148959819738
100.308461600946
100.141382463228
100.025276722221
100.064438133439
100.283846646111
100.256457979276
100.194785095214
99.9725258158649
100.319175992944
100.016181299529
100.05827023674
100.184331476147
100.175202329758
100.135878678307
99.9364200948448
99.9361980173105
99.9473055177603
100.1840393109
100.297824375676
100.108553424996
100.062536088092
99.9413835347478
99.8636785731587
99.8915627673737
99.9669861393686
100.123500972496
100.221333585782
100.109512292068
99.9441566077277
100.005738445273
100.087816780297
100.071353600059
100.055124370301
100.113976279187
100.066841580014
99.929436224098
99.9601546387387
99.9065400041622
99.8373979209689
99.6958484480462
99.6038225593683
99.695084865599
99.7718791530614
99.9255394313399
99.8940651182067
99.8657693635037
99.3756309542937
99.2869417894089
99.3671893885317
99.219021531219
99.265487023028
99.331066407091
99.324578919862
99.344358037343
99.2944682060159
99.1794895534449
98.9775123462973
98.7705127657318
98.9951836687966
99.0076427049381
98.8097220969826
98.6073342395926
98.4099052883879
98.3884082598195
98.4549398290801
98.4722065497078
98.2608295053595
98.1812086715482
98.1707900313308
98.0330514262138
98.0065096475977
97.6468052657918
97.732288980133
97.9688850675967
98.0143807610032
97.9634261625375
97.7740156215597
97.5555969112148
97.568093459199
97.6184190803112
97.5693604422052
97.5574222753258
97.5432680916033
97.5008021928864
97.3939410913632
97.4131215904052
97.4468800083003
97.3294931926239
97.2194564743614
97.161729115131
97.1754400771455
97.1609463101508
97.0445687794944
96.9776344170776
97.1510272971008
97.1683239141865
96.9109047960243
96.837923392626
96.8719422617975
96.6797173104784
96.4809146533164
96.5290170186457
96.6193057076067
96.5734312394401
96.2647680414386
96.0172509787471
96.0363471864097
96.0688220347845
96.0436741657963
96.0414831919138
95.9183773739544
95.6298296723818
95.4515095236202
95.5715535395722
95.6441127403207
95.5554639812656
95.479568115829
95.2881761985923
95.2849654870196
95.3617938349739
95.1626954982943
94.9408032504992
95.0086912516977
95.1011999191387
95.0727176321585
95.0002819044001
94.9854396441129
95.0241532351366
94.9750483528678
94.9661279807458
94.9571085639667
94.8495746967162
94.8676586006744
94.7962627150504
94.5509000964666
94.4416541218082
94.5336489404511
94.5380562302383
94.3762203510403
94.261899055982
94.2491357745547
94.3161901609577
94.3656590247237
94.2762539613141
94.1523549897756
94.0909914203131
94.0963444664078
94.0877053770538
94.0970289067155
94.1333961947148
94.0031310769521
93.8274531495951
93.8924650333511
93.9354265603866
93.8116620668512
93.6008829648617
93.4324997173989
93.4453054781848
93.6534742564287
93.8310229448285
93.7043507963917
93.5076850819236
93.4308127013262
93.336322118233
93.2467633492125
93.2482400281116
93.2119080442396
93.1227145628442
93.072929227983
92.9842830353435
92.9121805616573
92.7822721280164
92.6617330859216
92.4497623211338
92.3457616947025
92.4335901546081
92.4112130980067
92.3054147685639
92.3387715973047
92.4583899059255
92.4803033846274
92.3465238924915
92.2384209412382
92.2130375948077
92.2687774690936
92.3463062046673
92.3027745333805
92.2179312123575
92.2665896125408
92.4190961578093
92.4478255404223
92.25723925851
92.2179793957802
92.3117693274036
92.438565667304
92.5789218192583
92.6571710402609
92.5926388255528
92.5225234335181
92.5977182177314
92.7456952587935
92.8004157128047
92.6855821927719
92.5729357006262
92.4501158456334
92.4126314634184
92.6016526124949
92.7046228699641
92.5941744360044
92.5482056442747
92.6194398440226
92.6057168517711
92.6167906283133
92.63979252339
92.6206463778008
92.5732344936039
92.5525181293583
92.599691889436
92.6128532335335
92.6133557687299
92.5880119837826
92.5347604441904
92.5705207764225
92.6286292947965
92.6277594784292
92.6170634155529
92.7510874679789
92.7758471090389
92.7227035701565
92.821945534974
92.8871656628491
92.7424398053438
92.6134281915132
92.7396326509341
92.843356566999
92.7063176335149
92.6899702441577
92.7908833428085
92.8902474461501
92.9897412105678
92.9858748490974
92.8656034298419
92.8014679674316
92.8164494308666
92.9208228222658
92.993925425225
92.9540450193486
92.9187105123714
92.9981323995574
93.0553268415689
92.9847707496712
92.9064493599398
92.9335593876752
92.9734335035674
93.0384873332483
93.0714217344095
92.9382217414281
92.9342814416111
93.0851133980559
93.0871063770362
93.0491373017553
93.058947428185
93.0772207282146
93.1534107289828
93.2330957242241
93.2505705148196
93.2792431222312
93.3432719029718
93.4328930349255
93.4857074566466
93.490042013105
93.4266477624264
93.4488308499366
93.5615354498494
93.5881797705319
93.6069528637398
93.6918972613287
93.6786301315
93.6266349392404
93.7028633020197
93.7900523375545
93.8012639928734
93.8582687611476
93.8402788521886
93.8046000496882
93.8365826493599
93.8674571069772
93.9357393478304
93.9860656939152
93.9786246488138
93.9654067778911
94.0219650268619
94.1148405217234
94.1179876165878
94.0938732748268
94.1771183257999
94.2532699340325
94.2865476884519
94.2932265519594
94.2840425986831
94.3237748387424
94.435973839957
94.4891420854757
94.5110850614736
94.5978195992054
94.5893601802164
94.63812797723
94.7573729603354
94.7660002688161
94.7710311464358
94.8419466450034
94.8679081066243
94.9465083399415
94.9657966867549
94.9208085285682
94.9762901286363
95.0573783234234
95.1096489197881
95.1826679180025
95.2068482839395
95.2456604562006
95.336918455522
95.3247317778109
95.2470375492547
95.2773148947549
95.3559357504181
95.4061430115746
95.4404194432942
95.4829014087364
95.4910802821671
95.5183000463774
95.552745678327
95.507872671786
95.5383458600771
95.6786251140436
95.7216808869647
95.733343461374
95.7486285704254
95.7024921661228
95.5890509698886
95.5925230732171
95.6735282876014
95.6714940503693
95.6691525337972
95.7854274691883
95.8311351305557
95.8274116638489
95.8411220852676
95.7779668961637
95.8065327362099
95.8804364764405
95.818022193331
95.7240194001593
95.6792184783037
95.6650282631842
95.7282015958828
95.7812090799508
95.7940877145486
95.8569822841674
95.8682020745766
95.7924413523007
95.7277391592368
95.7353256713743
95.7572886638951
95.7023070464804
95.594495010857
95.5949812626585
95.646621219789
95.6622877827088
95.6750438173017
95.6809652496542
95.6537579378136
95.6169137658077
95.5973311623531
95.5955712698555
95.6600864402808
95.6640288896748
95.5967371781542
95.6377705101267
95.710486893922
95.6900005497104
95.7139885256505
95.8460406796022
95.9854569182496
96.1235277253081
96.237454749902
96.3462380139282
96.3902244838709
96.4797551639518
96.5762527810978
96.5826518869233
96.6130886262788
96.6597841327767
96.59576400236
96.5466914625214
96.5120772059756
96.4839844911459
96.520373709484
96.5313889556963
96.4729394437196
96.3902322579058
96.2454234200631
96.1113090016501
96.079597927659
95.9664306892801
95.7901450933548
95.7194112918115
95.7046592398363
95.5809468170063
95.4354245058164
95.3145741659244
95.2166199344037
95.1549562072634
95.0216646785891
94.8007293446594
94.5838339312613
94.4122915245501
94.1950700025562
93.9054520254666
93.6233743658617
93.3057644164061
92.9632742872651
92.6401807256397
92.2398131545014
91.7117010851884
91.1413958879319
90.5428338276972
89.8878449304588
89.2481078219169
88.6707002949542
88.1291045520079
87.6481363475662
87.3162337130031
87.055396377133
86.7911786885844
86.6048489874615
86.403631714826
86.1615659386069
85.8870898466585
85.5412713075522
85.1386775577666
84.6362909302912
83.9968945180471
83.329790709492
82.5807667637014
81.7453801685278
80.9661854608918
80.2701741152015
79.6654944205145
79.2569130953288
79.1106492774954
79.2584818520646
79.7376214366912
80.4301568743858
81.3436520227367
82.386018292223
83.3499636319081
84.1522114894398
84.8779267370094
85.5624150957445
86.1976388802457
86.7264291840989
87.0891837863907
87.3454347253477
87.6011874265181
87.870245788697
88.0579192691665
88.2842975199954
88.6099581131971
88.9266807122833
89.2660028160785
89.6347059978143
89.9805227870101
90.2859228794992
90.5491745994984
90.6873404452373
90.6358006001149
90.5178940370606
90.4763399409716
90.3781927933704
90.1743603771227
89.9065492592729
89.4642540365568
88.7880202643968
88.0082595290937
87.1453473603959
86.2527280202862
85.6085504286315
85.4721093008025
85.8270607057664
86.6477980986939
87.8420633198621
89.1621453820351
90.3975685578224
91.4775080862432
92.4154519384535
93.185270921806
93.8125669594002
94.2807502862123
94.6338535695561
94.92014053893
95.1904136948646
95.4236170519495
95.6309338100985
95.7804222050161
95.9106895784153
96.0444730699267
96.1608092402687
96.2628003698453
96.3338853833366
96.3886042376487
96.457400923797
96.5391720827525
96.6538250985384
96.6944958653089
96.687726899878
96.7318054879487
96.8146049921381
96.886306110275
96.945965252604
97.0288604582416
97.090089357799
97.1055709702732
97.1458076509952
97.2316975199498
97.243858195902
97.2679634599588
97.3404504396672
97.3898353622605
97.3992718715644
97.4068979455603
97.4649259225195
97.5058319352839
97.5091981043859
97.5386540941378
97.5713440099141
97.5733869705578
97.6080006390807
97.6059722226298
97.5803085836257
97.5776159923032
97.5769393621851
97.5912230691836
97.6159933809089
97.6557993397447
97.6583017633159
97.7044273726442
97.7599107491035
97.7799731736766
97.7806577833327
97.8137546604042
97.8253563192104
97.7731067700212
97.7965444910372
97.8665956480262
97.8469699420632
97.8105430277076
97.8097520385817
97.8574991081454
97.9272766413154
97.9819193706248
97.9631833045734
98.0036438258502
98.0667716703089
98.0380242685907
97.9812790979854
98.0157125394045
98.0500584463812
98.0366376501146
98.0192876813317
98.0371549667581
98.0890889919273
98.1356210985014
98.1499663958431
98.1463712309239
98.1594612293812
98.1471398405248
98.0991671916174
98.0958245288233
98.109376002398
98.1276306505711
98.1458589281647
98.1020065796108
98.1004101713346
98.1324702714613
98.1189726664842
98.1065944014626
98.0939912282946
98.0734830118725
98.0933484858578
98.1449153189034
98.1361424991851
98.1064990655005
98.0725549181502
98.1298744299395
98.2058150062823
98.200727115128
98.2076010660986
98.2483571070941
98.2380023145424
98.1963155919272
98.13407579104
98.202921277076
98.2958736970465
98.2964022305292
98.3389413741186
98.3369588371968
98.3045885322613
98.2729489294158
98.3101657671744
98.3535812125766
98.3406239520404
98.3477542875207
98.375551304428
98.4587529696449
98.4931327162432
98.4518840181228
98.4273552050466
98.4646559570332
98.5701702108495
98.6465369828355
98.6108100361618
98.5867029659466
98.621844222569
98.671923303896
98.7553375702914
98.7735915216563
98.7030772512666
98.6964632262745
98.7797310706137
98.8810809393846
98.8316102912204
98.7510026648436
98.7059078627348
98.6802868897321
98.6917442113036
98.6712719652733
98.7473408939327
98.8499584338517
98.7906751517583
98.7151875007897
98.770976106293
98.8471567699332
98.858042933303
98.8670384202197
98.9034168029518
98.8691222251219
98.8325683396897
98.8606582210815
98.8575183823672
98.9119119543781
98.9244497370936
98.8335852337451
98.8321460496241
98.9274625451317
98.8710905734615
98.8319820607369
98.9472143768941
99.0164977964726
98.9077421057541
98.9135236422019
98.932906626586
98.9350625235001
98.9178138988947
98.8369802230783
98.8040845922333
98.8563057192498
98.9177613588755
99.0051335818785
99.0209971622031
98.9725380674581
98.9549841826
99.0051041995352
99.0320523771443
98.9841806821141
98.9551709720556
99.0192590683356
98.9844660083827
98.952845196334
98.9268921082383
98.9940056137917
99.1614589307325
99.1965591342781
99.0911294734764
99.0718476903671
99.0401930197665
99.0474144914729
99.0777933999677
99.1066325240335
99.1236403226988
99.0902491008061
99.1385162169699
99.1914645309009
99.1537301858543
99.1333624719374
99.1158369243715
99.1363948254576
99.1454505626197
99.1351443386897
99.0965827570822
99.1784824694386
99.2386504497175
99.1887720210535
99.2033305150697
99.2324975882433
99.1804168067023
99.2363826027873
99.2850679454405
99.2638683980874
99.1602298010477
99.0860697206634
99.0812436292183
99.1180588854196
99.1397295280574
99.2123346881971
99.1940301021636
99.1838907719746
99.2232993561673
99.2164848011016
99.1413787010241
99.0916486515096
99.0899481546921
99.041195744479
98.9779905009026
99.0219484793363
99.0489959879068
98.9967899272023
98.8820872165272
98.8873148373371
98.9340711872995
98.9456827122458
98.9587450387697
98.977319200865
98.8941726796518
98.8501785421518
98.790634698286
98.7817500651944
98.8136767145255
98.7938281573598
98.7812124117918
98.7948862931069
98.7195649069085
98.7111848371677
98.8080611360479
98.8686933730479
99.0173888962904
99.1862508282667
99.1650609495687
99.0922191138445
99.1739146841597
99.283470870069
99.2733737368999
99.3004252768422
99.4161547605442
99.3011529271754
99.0452787022676
98.9635976795081
98.9755513768427
99.0009754183204
99.0281155440262
99.0192447790388
99.0508468502207
99.0727465791141
99.0718570158779
99.0645306323001
99.0811824650498
99.1233229159503
99.1354746633751
99.1282442907909
99.0768817155424
98.9386432780066
98.9214650242794
99.0016955801417
98.9690821790281
98.9353526561433
98.9715809377716
99.0124502808248
99.0789068404097
99.1924915339138
99.1885238619275
99.1990095271153
99.2050797617489
99.1735864862861
99.1473114481986
99.1703925940645
99.2258655775056
99.2446106058044
99.1631381247132
99.14769875051
99.1640726357947
99.2896987717277
99.2498479305944
99.1941635683022
99.2700905382843
99.2853819098858
99.2292642367397
99.3141781941132
99.4447218049095
99.6233196825163
99.5872707398757
99.5825114979401
99.6821068792637
99.7209157917933
99.6989206831946
99.7972265263755
99.8711585702109
99.9760344215643
99.9394389163388
99.9562543926347
100.013510438755
100.061884352164
99.9349049952256
99.951186439167
99.9822787790953
100.121517667579
100.123234513158
100.095665244325
100.174521646662
100.220638824945
99.9914543554828
99.99614372615
100.219300206578
100.250065213123
100.128855366041
100.19615288171
100.258082402855
100.484150543771
100.284037195105
100.376782634494
100.553142938604
100.479052891673
100.394168548727
100.490413461918
100.534346352921
100.675063590871
100.589551836441
100.456072245249
100.470840402712
100.767001980444
100.687822510429
100.523702525749
100.440600186338
100.725004769379
100.846951807039
100.749035546862
100.783902492488
100.816338227366
101.007969622211
101.174913955448
100.626054779804
100.488183774991
100.869601480647
101.267982880917
101.277009936054
101.378556298575
100.994565784431
100.751057557774
100.964703246207
101.148357589587
101.074607037796
101.398880390327
100.961678376365
100.941248239436
100.911582768704
100.316926626108
100.049799011647
100.362705538795
100.257198240308
100.16180293773
100.168274019957
100.229399907935
100.002474037512
99.8774170660958
99.8008181019383
99.9094070284983
99.8559142107898
99.718162586512
99.6353823580904
99.633626236479
99.6078457170294
99.5579934052501
99.4872354075554
99.5753265809805
99.4667046879851
99.5839547768182
99.6613816141537
99.52940233738
99.4999261772729
99.7061018513895
99.6488637193332
99.3294295509033
99.2654223857555
99.5744038466162
99.6602270178617
99.6338317157991
99.7126893010021
99.6242422484648
99.412480680141
99.4703458119928
99.5322517318874
99.6711167197547
99.57496480331
99.4507509565019
99.5498945070841
99.839810791707
99.7691602888533
99.6576631977975
99.5755710848682
99.8018876684169
100.005412940639
99.9301534686111
99.7757023141282
100.067931028022
100.10938915624
99.9749288814226
100.088465385899
100.239648490354
100.123395502788
99.9034029830917
100.198094330308
101.025757011946
101.117587049289
101.418550914967
101.644603955648
101.313034276133
100.960407782229
101.315483795744
101.343009419601
101.062211592225
100.547696146089
100.751174727821
100.970563983725
100.43013313022
100.141277804804
100.411235966034
100.540926246911
100.442099664542
99.9515218764718
99.9713834265211
100.297906930738
100.349827503724
100.272415657873
100.526578962295
100.600447076631
100.446921587719
100.312143008869
100.275315896859
100.199135135257
100.311472249521
100.468080087031
100.597101401614
100.331039242618
100.354054231066
100.425820428458
100.305748244843
100.307642764902
100.486412101604
100.620678113705
101.063814896855
100.798506163534
100.466567085387
100.233754454068
100.134688143173
99.8084857243557
99.6852250733956
99.6126873451554
99.6451222623867
99.5833216554547
99.7444042417777
99.4714118338756
99.1081608763994
98.976278396142
99.0700879909445
99.0529746996791
99.2409096438369
99.1196518416706
99.0771448535318
99.1061067091119
99.0978167543483
99.047543590759
99.1883698863384
99.2212881914361
99.1201050257028
99.1218783805132
99.2369010447228
99.190290410462
99.2330428727176
99.2352140337024
99.1668589208712
99.1896701306904
99.2010265187616
99.1692622190193
99.3199600643426
99.2465140241299
99.1697898528665
99.1749832596378
99.2761222319793
99.3121819361508
99.2958600309229
99.2412857619361
99.3558698958654
99.3205094922726
99.318469340379
99.2680844933266
99.3827561809701
99.3694922718954
99.2668821997718
99.2855761370186
99.2958776612563
99.2025475327802
99.274051615393
99.2596725112845
99.2797942702163
99.2255938874173
99.2380217064377
99.3105127811728
99.3516755911935
99.1855187451285
99.1564607852642
99.1448690177859
99.1767322410175
99.130685185386
99.1240720477996
99.1066466624134
99.1552008303683
99.0903895776696
99.0094669530077
98.9364090166208
98.8586698405752
98.7912267956887
98.6683782381364
98.6438030265746
98.6577582624002
98.5335518895255
98.4733970379533
98.4616802644791
98.4604127128199
98.322962953827
98.1560462225814
98.137406542332
98.1185242131928
98.1300542041604
98.1438142145828
98.0584886501284
98.1020287070314
98.1096966522276
98.1102347273569
98.0885118211558
98.0620366300716
98.0267643636461
98.0421463618498
98.031039056956
97.9883380457873
97.895102047098
97.9320648053471
97.919435727176
97.8750676296556
97.7772945070094
97.6628198133948
97.6520554043154
97.6559457887548
97.5933066068887
97.5002508292231
97.4497568712466
97.3693985550568
97.3313225110024
97.2761578562363
97.1674109178792
97.0761574889452
96.8063593100526
96.7389018324197
96.5600876646504
96.4988105911857
96.3302551474101
96.0175860553976
95.6489679121814
95.3683777991434
94.8172430861615
94.4342116406278
93.7465345187014
92.7465693752931
91.570970887108
90.3271174722134
88.6308440260833
86.5953786834659
84.0113923075184
80.4622311430707
77.6478294133135
75.156407435137
70.8023635292862
67.1980255255992
63.7142144120136
60.3994259796598
57.3612660273503
54.3819330214842
51.300529102709
48.9463784709742
47.2918332776172
45.6527140919601
43.9573096462485
42.3655263100501
41.4581846896706
41.092641451545
41.8274689774949
44.2712025130599
45.5725988488439
47.0381437720426
52.7607615164416
55.3967527692417
59.1233189133474
63.0379812186674
64.5346417170324
65.7555304136118
67.37700530006
67.1817063601916
68.4347615332802
72.3725128160297
73.8609752592915
73.8609667011834
73.439821976149
74.3418707173288
76.0155278685657
76.2054846011554
76.8599462454626
78.8052163272921
79.5507859216507
79.2709274453331
80.0583283002404
81.3659430432562
81.9848078147346
81.5028089722362
79.9636509654345
81.529706321258
84.6548563445253
84.4770645019462
83.5872486184217
84.5099625440235
85.4731816367057
85.5102781875993
85.2765102802268
84.7633976147059
84.7569355511064
86.1318528411356
86.9518782806218
86.7358722123893
86.5492385674679
86.7847470331722
87.0428553930479
87.4207984480689
87.8832925456364
87.7247232360759
87.202583383792
87.2476068052788
87.5190898228432
87.4296775183521
87.4522799860812
87.8269278922735
88.2907290429253
88.6307148555006
88.9031291574194
89.2386116218478
89.5006669531887
89.6264439872266
89.722871921233
89.8387331460478
89.9364297252354
90.0086348206372
89.9646014408051
89.7709058090197
89.2002479664066
88.155104279942
86.7113416923556
85.2806369864722
85.0032730415231
86.4890542833157
87.5563210786801
88.0266190321227
88.9376208915663
89.9021179178385
90.4893279569686
90.7787644158491
90.7359817811002
90.4176784126118
91.1165489093036
91.8374064724885
92.0391305952105
92.0381152389596
92.1376962664534
92.2478646334299
92.4100743062826
92.3688933705774
92.3419902629821
92.3859625005713
92.8013119045764
93.0973221564315
93.1692280806695
93.0112089157033
92.9829536004235
93.0518863197346
93.040648261963
93.0629258491004
93.0576984993136
93.1549307982808
93.3028330470331
93.5213692064367
93.5968637001064
93.6770902530967
93.7040180661394
93.3358382939211
92.6407689418899
91.0993921406525
88.5546929828386
87.9903996135429
88.9473784710343
90.5575173954637
92.1692712110104
93.5597917018926
94.4646149206584
94.8378251540145
94.8775567988199
94.840838870945
94.8639732976257
94.7550902446079
94.5323387118058
94.1313830653773
93.6254115860481
93.031521035228
92.2606785025218
91.6347749758348
90.946971388052
90.1609918908497
89.3094312408451
88.4311426976568
87.6406168699352
86.9725462116544
86.2313801949409
85.2816288631273
84.4773011800557
83.7116458868645
82.8442752075425
82.0154058437714
81.753123437876
82.2450383851754
83.3258313461394
84.3371409595882
85.2063515023804
85.8513413980454
86.2328086282226
87.0940641044305
88.5253420737701
89.4926013996659
90.2147400826969
91.0097529942197
91.5945295633826
91.8944508867099
91.9432975453095
91.9074646279218
91.6417268454223
90.699487741978
89.1455273092062
86.4748588210398
82.2216329243207
76.9666390623968
72.9279287133976
71.7452787024537
73.6621806165065
76.9428204778076
79.4010943424154
81.3980797247279
83.0688782115711
84.1349959327444
84.943419140282
85.486076726789
85.6568512562812
85.8294144804521
86.2794698530133
86.6911995691073
86.7546086120242
86.5246568600757
85.9972562817053
85.2200779145042
84.4385125095371
83.8405934080035
83.4867421548402
83.4143464451639
84.0166675019199
85.2078245837742
86.7064748894413
88.4207083412612
89.8073249676306
90.5788083715688
91.0125239726959
91.2930657087116
91.4691260399392
91.5265939016682
91.430685839242
91.1407250142098
90.6847745189514
90.0399541945419
89.2985935644883
88.6857752328465
88.5932114534867
89.0595440338224
89.8193331657318
90.5404008365956
90.968182472345
91.0302431096687
90.7813709459144
90.2722416652285
89.5648109908395
88.7824470168609
88.0018219528806
87.2536746786287
86.5771358066668
85.9805018467381
85.4100262347498
84.7014577540294
83.7990450797119
82.8141946344294
81.8325246175195
80.7967484202736
79.5473518870924
77.896444797046
75.8436459472807
73.6215766345523
71.4885463347546
69.5965561100932
67.9439746094527
66.4082511999259
64.8915900873854
63.3185862450122
61.6805460077142
60.0132396761968
58.349685054215
56.7132601006121
55.124200034935
53.5944013409293
52.0672837126964
50.450767158156
48.711450481787
46.8934794685409
45.1163577429876
43.5636422986893
42.4034421547215
41.7261561855781
41.4126764942386
41.1736562514409
40.756266363429
40.067544326287
39.1334000341308
38.0310047369329
36.8215473821151
35.586276134493
34.4542740991668
33.5286798213247
32.9124397209841
32.7110920533687
32.9944232628465
33.7916909907257
35.123417550555
36.9636971730979
39.1910554514745
41.5902182358124
43.9101966704227
46.1074140306237
48.3224799475594
50.6288446960433
52.973386973169
55.2603890225149
57.4485294921782
59.5062840511066
61.4170962960632
63.2045752537052
64.9100525836057
66.5435255161002
68.1035064191466
69.6086004753987
71.0583936399063
72.4552908893852
73.8501866323473
75.2248839547842
76.5126578781693
77.6415508814084
78.5126988356942
79.0193902476901
79.0761826621441
78.6878366010273
77.9905612173071
77.2061311443684
76.6433563760748
76.6420528082622
77.4347433789682
78.8974493603369
80.5048165846914
81.7939128905646
82.7040050012526
83.3055099083879
83.5993408082795
83.5739470657464
83.2847336961994
82.8093642459096
82.2026975976216
81.4678565811492
80.5505827821635
79.3944582202898
77.9951739239435
76.4218234114977
74.8019381618418
73.2140990148262
71.6447637778758
70.0589561308299
68.427936763402
66.7025612241556
64.8018862356294
62.6087468259736
60.0969466228196
57.3709213348719
54.6251000640342
52.1069248464836
50.0846152500665
48.8004056039575
48.4961602189027
49.1635496296532
50.1614810753403
50.45225803241
49.4473520063217
47.368620454544
44.8114104404939
42.2218397013008
39.8602705485795
37.8435807367742
36.233777288872
35.1014085378037
34.4379801071455
34.1331461878657
34.076652972128
34.167060747285
34.3501817946634
34.6480250148441
35.2132228600527
36.2373743496043
37.8160765652407
39.8191957672728
42.0304486468474
44.2702223533296
46.419390329524
48.4489511201659
50.3824265214815
52.2400198529927
54.0197038413543
55.6505833138882
57.0773729898179
58.2279514580575
59.0253964596843
59.4230141941895
59.4317810000156
59.1147541453362
58.5921612536694
58.0403678206577
57.6572438204584
57.5561839082929
57.7676252351054
58.2768111335279
59.0316787867526
59.934486817782
60.8839031427123
61.839748191365
62.8471291837811
63.8150722610778
64.1710225300306
62.5896039233021
57.8551676081175
50.6578122652455
43.8246768873864
40.4461131571311
41.6639311480385
45.6776712726878
49.9687839790683
53.6653721985513
56.7867278687318
59.3112693985193
61.3898484665134
63.1586918445414
64.6517225202553
65.9052161919657
66.931585102859
67.7164419180968
68.2727919976251
68.6310300004499
68.8320751465957
68.9664075647902
69.1185307327136
69.2314469203036
69.1833211867384
68.9303683530419
68.4784256807069
67.9024384731649
67.3405320278029
66.9044210045259
66.6891326205945
66.6894128247935
66.8239086775539
66.8987525262376
66.719737071837
66.1946792918035
65.5773956941392
65.3346471800835
65.6007009827755
66.1326318037984
66.7099192232136
67.3203227830857
68.0763996890935
69.04966019229
70.1726510159186
71.2615048658275
72.2056504261406
73.0276777212685
73.7192099070759
74.3072868758115
74.7868501307563
75.1856842842836
75.5941945282224
76.0029540561871
76.4384898960339
76.9260708484084
77.4547007275262
77.9936434920994
78.4523904561477
78.7778264373807
79.0170952015222
79.1004532371366
78.9347305846681
78.4625858447129
77.6560441535969
76.6190012960361
75.602925145835
74.859137765518
74.4735967319281
74.3440770809812
74.3457100480272
74.3812301078981
74.4474671230877
74.5024544873926
74.4631834208906
74.1713794568211
73.4260437115194
71.9406632780107
69.5526892209712
66.4315260917977
63.0534294450615
60.2247261825688
58.9072044257823
59.5614493085342
61.6826140808789
64.3330028851719
66.8078994954479
68.7785532500832
70.268731522181
71.3047053603052
71.9362011019351
72.2953395234774
72.478598867244
72.572565267238
72.5505670255526
72.4893027178585
72.497868379387
72.515576855362
72.6345626639757
72.9118794193365
73.2327877793019
73.6055162729242
74.0446476296306
74.4609521467163
74.8969851351574
75.310380586231
75.6193183905443
75.7664686154822
75.7901643811517
75.8320974624907
75.8665567366319
75.8417249861216
75.8198580502552
75.8186318369733
75.7667626945119
75.6433611652211
75.5527733696638
75.4756938359549
75.4412967218916
75.6503569678165
76.1669908157916
76.5745294636135
75.8024928392036
73.6598937698605
71.8443517295329
71.9361684815314
73.5830987896336
75.6642349412927
77.6409634432684
79.3109839990189
80.63232292688
81.6575598580614
82.3927676086466
82.9852460104628
83.5288477110292
84.0437507194034
84.6102826409836
85.3995671653899
86.3188867309167
87.1632221329319
87.8269102407959
88.3952606904679
88.9312222541357
89.3703327197015
89.7422793060063
90.0038025743456
90.1857425134938
90.2973943965794
90.2318507563097
89.8675438026784
89.044804840946
87.5053867918302
84.6082814808043
79.6052943274415
72.5352480662337
64.623662570105
56.9803164716638
49.8337882315453
42.8403576191834
35.88779860763
29.6107804848374
25.2670289843694
23.9824073362624
25.4672413855109
29.0556090316543
34.0442524589465
39.2582432483022
43.5472868245679
46.5420077153653
48.6178766140431
50.3205865205474
51.7303914825288
53.1064666106345
54.7989503097256
56.9022825954715
59.1111171252993
60.883761103857
62.4130381494038
63.7755258680706
64.7112146005372
65.5246577461645
66.362959781192
66.9682657522625
67.2428035529033
67.2506069118904
67.1764985735603
67.5586381793384
68.3399984830841
69.3625882301118
70.1915171078745
70.3473225296419
70.4716322463619
72.5385555962173
73.1243106360488
72.5047535985627
72.4893246368519
72.8599729743953
73.1118701949781
73.3146785615386
73.5175034565354
73.8775873661437
74.6251686633944
