1798
3999.43349933624
650.420452594757
1
128
4
101.859093642672
101.830108912936
101.896736385326
101.867062810683
101.880257963389
101.975542114419
102.003643825684
101.99536233443
102.048732555643
101.945127713484
101.853900058474
101.82277319594
101.954376364972
101.927010621438
101.803599231765
101.745320624748
101.805552057102
101.855856576024
101.920054588199
101.85852383504
101.801540800643
101.80405026348
101.82772430787
101.784409627953
101.831459626688
101.829246359574
101.794527919898
101.681161105656
101.67968607442
101.80559068621
101.822962406894
101.812537888841
101.838496317466
101.786216753353
101.819381320243
101.670869550746
101.727550677432
101.737318029848
101.703939295184
101.719934498825
101.767790951346
101.780692555383
101.706464645055
101.748053685378
101.667121507
101.782419752498
101.83857255898
101.848525882934
101.696558573936
101.709199492891
101.535933838288
101.056966222097
101.376903678762
101.549531303814
101.579022549401
101.527121030089
101.583050539655
101.627516833597
101.409968091709
101.805558784258
101.702028212601
101.300752451355
101.571260717881
101.633859774881
101.463818266455
101.524744178062
101.534134929607
101.272109361956
101.694753311479
101.169267603747
101.522172737664
101.564116101552
101.524488279313
101.45337134271
101.476962730811
101.383386652649
101.538899223853
101.708083966412
101.160063598241
101.441328368241
101.578420112161
101.746249977995
101.86332744038
101.690738683705
101.556602961361
101.477819406521
101.397901205171
101.386005389668
101.495228625209
101.588775242544
101.483642257225
101.721937276949
101.477429693217
101.436696676352
101.716043007954
101.21045707951
101.159886480162
101.507064927993
101.217838245007
101.649856955148
101.57625026609
101.734483826645
101.840898000807
101.346253609006
101.591049701789
101.563905067113
101.050939812844
101.46482971661
101.436043568691
101.560765170664
101.646060751485
101.619880284276
101.626773313887
101.71798604532
101.70571787029
101.583105774862
101.732665905652
101.690128401674
101.52920891145
101.757027274335
101.676623324983
101.707862033179
101.646748843201
101.581561284462
101.663572586552
101.37584278745
101.595535017309
101.76427643739
101.563385732817
101.487234496376
101.416515564962
101.485216951508
101.278822773879
101.364966230198
100.891332098669
101.831475322771
101.334310304957
101.441720738482
101.473836504725
101.321899117787
101.084601826867
100.88947586991
101.277620924474
101.294729135738
101.560747826448
101.721361424549
101.503401558895
101.536415796096
101.367717890393
101.440487411344
101.465857071016
101.420073195714
101.608612745247
101.523261074593
101.204171971807
101.283012379897
101.530598874245
101.602740319185
101.587358781295
101.482498179802
101.585747245472
101.724450431523
101.643589426349
101.696086970414
101.447613609904
101.460217743508
101.37420996394
101.417886537145
101.586845908347
101.529655822907
101.642589753412
101.307797341874
101.526186695827
101.061468115696
101.130197086494
101.352408546355
101.12850180883
101.244340151095
101.411584983137
101.428358662333
101.404327568372
101.290677975957
101.398154084372
101.453357305871
101.175591986792
101.360638964988
101.031872928311
100.685818077802
100.630489377562
100.808270670618
101.073085551196
101.099820997158
101.162319339077
100.967094192166
101.042372640262
101.056983532368
100.781421765446
100.901679164141
100.437641188677
100.77134008459
101.037909319465
101.108953336332
101.12836751914
100.82251268365
100.480484833975
100.762841171446
100.942443859032
100.924087928087
101.039551840237
100.860712117618
100.779039842385
100.820666241998
100.906705816812
100.940904956861
100.848494490822
100.886947709726
100.913159020967
100.878517752704
100.811612229813
100.778551900516
100.739755441305
100.854417806132
100.866091769685
100.760049631527
100.718703027234
100.733964434368
100.736670041165
100.746967829062
100.867424654972
101.04156026782
101.065922444585
100.643583274635
100.278649882926
100.41575473839
100.582409863974
100.537964950269
100.525447996894
100.530678126937
100.432101923903
100.283791096885
100.332473163814
100.512673466753
100.441861495513
100.232109524966
100.238895289756
100.51166065382
100.567269020193
100.459873443629
100.33149745136
100.330922225088
100.361446068969
100.492591826385
100.557826403605
100.410806786353
100.366346791771
100.475019273021
100.435997910838
100.410550204599
100.504677282813
100.597621306008
100.523081524106
100.466128354031
100.380716928599
100.361349493662
100.417897522055
100.321288014765
100.250129034572
100.300808012599
100.312585589362
100.422960080637
100.334543444047
100.226810151695
100.288209668267
100.307596854386
100.2337322594
100.293694589718
100.323386598208
100.184470482349
100.036482590528
100.103553643916
100.282591304599
100.283368970083
100.194191461555
100.149241565787
100.091916107341
100.158684040629
100.341442298509
100.310162590877
100.103644024663
100.012507044805
99.9546574030109
99.9944282521367
100.056737392302
99.9111550524126
99.7087423798539
99.7069136103791
99.8340850613788
99.8117886513077
99.7309927496834
99.767234835347
99.5850911697874
99.4244085024541
99.4322539689142
99.4799183094118
99.4540714253861
99.6075131436263
99.7791728182259
99.7252470933003
99.4746836578857
99.3372357412396
99.3670161783346
99.5347922131212
99.5444900409592
99.428958029545
99.4121960953859
99.4881206114153
99.6316629249229
99.7031784254174
99.5039620631395
99.4289095287471
99.4735090086287
99.5509417072973
99.631120158217
99.7091842603981
99.7137105471354
99.7739582938568
99.927737732771
99.8825575985611
99.7481569962761
99.6787836646777
99.65428549483
99.5979784815257
99.5859837386411
99.6849468411676
99.7308278548143
99.6829387064021
99.6171384649529
99.6087814255097
99.6667585229872
99.8004133040262
99.7857704903925
99.5720035158239
99.4762327963009
99.6092919457618
99.669158405283
99.6317821958611
99.5659320357499
99.4952433973723
99.47033971442
99.5329619643719
99.5485957126874
99.4832419250464
99.4533629695463
99.5497565008732
99.6481997431577
99.6710793631882
99.6688810410756
99.7051329272778
99.6103206762929
99.5069028820172
99.5786129493642
99.58778012506
99.4499601185715
99.4282563995679
99.4595598219625
99.3766167759432
99.4061388409164
99.4957741184866
99.4114384037522
99.3479529919039
99.4159263201837
99.507103385924
99.5222665182466
99.4904020991619
99.437475713988
99.5134646881464
99.5210164282574
99.408596255117
99.3212126299762
99.2624973026566
99.2438247258654
99.2880442459462
99.329712653503
99.3215105034194
99.3949268865077
99.4751723582922
99.4409852258301
99.3224888403633
99.2743801954394
99.3206765500546
99.4460844867175
99.4931841543585
99.3904708593822
99.3305984125505
99.4082810048235
99.4876562194422
99.4525328473478
99.438999960556
99.4737098853109
99.5857096203211
99.6163279245272
99.5012648307488
99.4715479743155
99.5763731132629
99.5418198581028
99.4664322589973
99.4773989055712
99.5739085669607
99.6461339728247
99.6541622610271
99.5357463933873
99.4132661764458
99.4607924197121
99.5430490833647
99.5660967654842
99.4879329214558
99.4543733015404
99.5036567452342
99.5734214493206
99.609574690695
99.5647370060206
99.5555048290734
99.6602094448762
99.6758403194404
99.6332698673362
99.5717188453704
99.4951448250794
99.5393653964984
99.6660458590238
99.7228376247246
99.7439637242226
99.7336622337016
99.7427153546557
99.7398549763245
99.6806935847731
99.6682468724721
99.7128988887619
99.7622129816934
99.7327438241906
99.7507504228516
99.7899295170914
99.812466705469
99.8492055889296
99.8448792592444
99.8214103707585
99.826794406535
99.8506944988991
99.8847795280067
99.8945116162807
99.8609474889129
99.8431027154816
99.8334948798622
99.8146450139747
99.8005277884865
99.8070842837392
99.8154964631079
99.7828642006587
99.8434748425631
99.9355768178614
99.9360805520045
99.9105679652134
99.9351827918299
99.9083663200695
99.8171797493418
99.8491300940023
99.8147920325459
99.6894051377414
99.7104155637794
99.8093588165139
99.8455930733133
99.7950740902514
99.7953382071503
99.8395690801016
99.8110531045593
99.8523916038543
99.8778354840768
99.8289497076902
99.8584027268497
99.8452606197842
99.7136056724621
99.6322783399246
99.6444289517012
99.6707774736788
99.7032737847226
99.7096880724573
99.7649840991327
99.7508563999947
99.7061672508058
99.5990670018665
99.5595306972199
99.6373799833073
99.7076762072272
99.6659208855778
99.6070433849514
99.602505122187
99.6242396404857
99.5746273009537
99.4765640131874
99.4697844746081
99.5117119857539
99.5133105057856
99.5132875052255
99.5358043834466
99.4920696974268
99.4110647966194
99.373164607393
99.4067638624006
99.4606802844247
99.5101237695997
99.5872676310339
99.6144589755003
99.6791713850209
99.8244364999438
99.917806296215
99.8671391595172
99.9146126795144
99.9879454564324
99.9949814283913
99.9242157352874
99.9226070711362
99.9358038128541
99.9398344983331
99.9226229669268
99.8587311932041
99.8748901882029
99.8978971155951
99.8171855638167
99.7173914842014
99.6442346810892
99.6388446444439
99.6336310955406
99.5152858842917
99.3924393719088
99.3573070884752
99.3472612295135
99.2488738415078
99.1513848443073
99.1161555170932
99.027435785516
98.9245390633499
98.8822000871181
98.8222503627991
98.7228845009466
98.5898508690234
98.4236068271785
98.2650543240442
98.1316681926735
97.9561247554467
97.7444402848851
97.5547992525429
97.3101740152006
96.9861960598336
96.6528452412819
96.3221322429375
96.0140769973407
95.7505727077844
95.5440291555689
95.3026290652095
95.024508281931
94.7992237903093
94.6030339039837
94.4505565375101
94.3657647327228
94.2086627456927
93.9721599406123
93.718587392859
93.4763648142866
93.2943524655079
93.0415731310284
92.7526753245837
92.4197271945289
92.067545125006
91.7130923381622
91.386855525753
91.1126971366129
90.9582729073989
90.9560437456935
91.0844843562933
91.3076984085539
91.6145886532671
91.9690810233885
92.3094632604736
92.6557246429685
93.0360440584192
93.3382627543751
93.6450658920366
93.9149697111751
94.1593031848324
94.4014910541611
94.5790495805544
94.6770330495393
94.7657564397867
94.857735582449
94.8937589209455
94.999485582019
95.1839194937621
95.3594201225592
95.4784531631211
95.6330079967688
95.8169223845714
95.989767427531
96.1987300848981
96.2608013285176
96.1541655333439
96.0518879751651
95.9946878038253
95.9056998190738
95.7837347256671
95.6094361810956
95.305385852394
94.9284678508589
94.5765616183582
94.24219182033
93.9048798346229
93.7317695408976
93.8628073806936
94.1974729842082
94.6505675796962
95.1610499135792
95.7353626973774
96.32575680809
96.8416445263817
97.2730140537718
97.5698047175812
97.8260431288441
98.0414210540392
98.1812622453837
98.3131132472045
98.4474325804206
98.5622898069422
98.6726665224132
98.731982467433
98.7514793852746
98.818121448303
98.8942530491551
98.9439137290118
98.9914313196537
99.0284846512462
99.0566910163117
99.0720180007564
99.1124835342082
99.1491582850256
99.1679302608812
99.2004182862878
99.2568040388755
99.270636085613
99.3149264578243
99.3764840343592
99.4112834389635
99.3908039129553
99.3807542092354
99.4214270251036
99.4104359837656
99.4268935319003
99.489138410132
99.5079900421513
99.5317158792784
99.561100905665
99.5665359066281
99.5664554533709
99.5596025346193
99.5813883163017
99.6157884231671
99.6272596189819
99.6347901712345
99.638573410947
99.5920785844732
99.6065058619517
99.6377035580379
99.627840544786
99.6417893400674
99.6827505031778
99.7009240213383
99.7261908586395
99.7378088389805
99.7229080184382
99.7144796608473
99.7563980096154
99.7826725849114
99.7737630583655
99.7706339247515
99.7904725666962
99.7866344985656
99.7614985391062
99.7751852409054
99.7636962449
99.7998866449029
99.8530283890188
99.8410512203105
99.8681198070936
99.9021477056528
99.8644589827497
99.8480733483457
99.8725746399371
99.8820425154385
99.8811850061927
99.9042654654376
99.915450160899
99.9209530357191
99.9387255183316
99.9213551025688
99.9381353744481
99.9600692794674
99.9347101901742
99.8851156792949
99.8817025426933
99.8963805086444
99.9011151062965
99.9324931281835
99.9438569219056
99.9377175471466
99.9194388476785
99.8827987422911
99.9102541730774
99.9048128723825
99.8321902412499
99.8466687674951
99.9000972834094
99.8698867613983
99.8641196341568
99.8762904397718
99.9294294232772
99.9537737597234
99.9482481412151
100.012908174064
100.010995242978
99.9606736217389
99.9744013516294
99.9181609293006
99.8987681041368
99.9406177899262
100.000799276011
100.044733104691
100.000932465966
99.9796310821355
99.9992069103883
100.087262671497
100.086793715585
99.9827580860937
100.051210017812
100.056392090887
100.072875154932
100.160427188877
100.152642841343
100.123551967427
100.195248006637
100.268090341218
100.272338318039
100.235088345568
100.197658288305
100.190939554209
100.238882107948
100.303973391952
100.364099227404
100.381367729414
100.403784864014
100.360727525798
100.334056380536
100.31734661719
100.277851474255
100.249766865403
100.299473866299
100.322334023401
100.287514237299
100.350124676489
100.37564969331
100.283182094514
100.23542520942
100.293679036305
100.398094886035
100.41284863588
100.37073968166
100.451899159126
100.426951489943
100.348055108491
100.437085431476
100.442154831024
100.42410143064
100.398523023335
100.300741309427
100.258995762334
100.330512462847
100.400676700097
100.400771819446
100.355109788222
100.426972526845
100.412891972116
100.394056735211
100.346226714248
100.324868318828
100.367999577402
100.405233561815
100.356161107341
100.3097820849
100.341401641181
100.368674507463
100.383314768761
100.282307364319
100.27643806219
100.374041919322
100.452499949405
100.491733937813
100.391249033453
100.369860749516
100.433045682329
100.477590268459
100.397359391106
100.383547455717
100.481518285788
100.552204568228
100.425401493373
100.368964504913
100.436071783757
100.45767003238
100.447661908545
100.460593095474
100.459824261567
100.423109733586
100.367145807595
100.382714023528
100.404850632059
100.439252492816
100.43566933874
100.354767464058
100.391454068357
100.451305695333
100.433073342657
100.525410602939
100.492122065684
100.41408561164
100.457010818593
100.439781650576
100.407504754959
100.449528158983
100.485658871291
100.501445892694
100.419778563768
100.365143844611
100.387264977535
100.427114993882
100.40141659889
100.40249387937
100.391891242663
100.439329370727
100.514885245442
100.443616859511
100.282524041366
100.27332047922
100.380027184614
100.395875330484
100.308929292593
100.344012659601
100.346703162611
100.274449050902
100.220491771299
100.240681676825
100.259511162549
100.269352035785
100.255762606532
100.244856586375
100.205917362184
100.227934322805
100.170839427828
100.097885496724
100.110134076487
100.072861468114
100.082116192024
100.132168679166
100.060234890469
100.063661006702
100.164425638179
100.199921598041
100.267006798666
100.542416931877
100.619755621488
100.455050753371
100.563842944527
100.59114533137
100.626447989793
100.60794541922
100.647199793447
100.64111744528
100.446807392956
100.358732246141
100.340268884938
100.23588693241
100.25646845005
100.366699637201
100.445309789877
100.428098388316
100.417974890778
100.432454260926
100.481501769609
100.577515483205
100.476536413688
100.368291856144
100.359258217554
100.182408094536
100.161208368842
100.207112268593
100.171607602102
100.223927037892
100.187936840473
100.150249663762
100.194071860918
100.361793118791
100.393885153071
100.381517522024
100.31270972832
100.287137618108
100.273303735366
100.319139299868
100.347285341272
100.442593909811
100.444375610597
100.370756058589
100.306032445537
100.415410803882
100.465711626173
100.449862800074
100.453446504794
100.480447054899
100.442952344292
100.545860419602
100.644838951389
100.73854372612
100.72237922536
100.80481374775
100.811895796106
100.883729425683
100.948276854407
100.921319871028
100.926859757136
101.033143435218
100.953518237406
100.96635333905
101.097613720041
101.115033578491
101.053240514262
101.074954523498
101.034556741339
101.101933925254
101.082238517355
101.134659051974
101.211821361523
101.260792938623
101.115116053244
101.255298458951
101.412568593672
101.361131845857
101.412472700362
101.411230394086
101.266254417383
101.337327837501
101.125364737659
101.105271734839
101.414992998652
101.646061993126
101.689960932292
101.770192410341
101.658209714757
101.648850254327
101.542302116208
101.67593115669
101.801314198822
101.896610897076
101.898840538162
101.791762861103
101.566222436559
101.724769243654
101.940828594804
101.895601344484
101.738748394134
101.920149783494
102.226622574514
102.293220358852
101.80771615888
101.850607319072
102.130743777412
101.998922059445
101.880769582528
102.226838426593
102.188078886493
102.367445964605
102.499110434174
102.657448081184
102.592888759248
102.597135114072
101.973297603221
101.896788472649
101.743037587735
101.359230172905
101.096532587048
101.203101942536
101.253453462117
101.433666928576
101.475167779937
101.487470750313
101.269686046618
101.034588157824
100.928517470846
100.911795424257
100.870692238015
100.946090245821
100.929829710618
100.80561736981
100.798483747212
100.826468363076
100.725027383057
100.643548730105
100.494690446167
100.62092573814
100.703923556868
100.71524157271
100.700305365475
100.794573165952
100.792497897755
100.647776439768
100.589919623922
100.739968190118
100.752178460575
100.779895269648
100.699608353145
100.502633414119
100.485095202634
100.674791343668
100.523500718231
100.605954774689
100.656742925136
100.638168032337
100.751130526967
100.997177278581
100.892707479795
100.809133198518
100.642266021223
100.86865644997
101.146594826469
101.156786551733
100.989050298704
100.940931540969
100.822511464932
100.926115303036
101.044149199351
101.348859843006
101.231144582857
100.963163855854
101.31929871811
102.059770779073
102.125681853273
102.131878079475
102.184850442064
102.188325697794
102.008644698893
102.212922885397
102.366022138163
102.478694751028
102.063635070967
102.020055646249
101.93409964491
101.592175651531
101.363854410031
101.566647004605
101.707769327726
101.736129643231
101.483752793677
101.246698385071
101.022827690272
101.643304835412
101.898287881863
101.829462928691
101.677620661839
101.591848850631
101.484728474951
101.349530717734
101.104533729509
101.327843828336
101.629893129252
101.471128231158
101.094359789291
101.292898659452
101.386336053003
101.351951858897
101.182776298078
101.301931093034
101.660406095117
102.120906525345
101.566672713939
101.24784179923
101.317056353308
101.448943936342
101.077208117199
100.740211997732
100.665950732906
100.95257192464
100.777429051376
100.637995186196
100.464138072502
100.358844041653
100.303200901528
100.416995903958
100.283633237971
100.458915172776
100.368226666765
100.319878314272
100.17762447255
100.054203191374
100.074159002721
100.289223966852
100.229914255926
100.055543764569
100.011668087144
100.12727213121
100.170957250633
100.197949180995
100.162481949474
100.013458422958
100.016809022123
100.030865642682
100.099519858735
100.287323549057
100.18430224264
100.094226695984
100.033164251319
100.151180393471
100.225034285433
100.270977645016
100.201591898841
100.23460310072
100.106249288485
100.169061978457
100.156666385706
100.177834921829
100.051026855833
100.00516282438
100.08511327311
100.106085364888
100.09672709943
100.179882629127
100.165203919683
100.118742986534
100.110740913623
100.111413438311
100.01573315022
99.9536794209835
99.8418356891066
99.910360075307
99.9150842508071
100.007784338189
100.014377224311
100.004024279497
99.9807494911618
100.03586816255
99.9255988770228
99.8562252417264
99.7952295551695
99.6313785415283
99.5494348283012
99.3999961486075
99.529112103724
99.6109207061817
99.5234183103023
99.5506849908091
99.4910702665764
99.3241469310967
99.1922691963656
99.0414372561391
99.1496977405358
99.1097135850983
99.2027428168737
99.2970803772463
99.250673959467
99.2783952991223
99.2957568286911
99.2782627765827
99.1742995841601
99.0995959282096
99.1668663639965
99.250405588585
99.212781821505
99.0630468626615
98.9489682980824
99.0353796728618
99.0308170076694
98.9156093827085
98.8599857890488
98.7413064334207
98.8657054786969
98.9352699365931
98.9526914657958
98.7887130928811
98.7911085198695
98.680330155066
98.7276516026734
98.6015609904079
98.4518262713726
98.3567804283899
98.0713004571137
98.2591607846036
98.2109024498689
98.1719696537632
97.9930243962521
97.7326194729337
97.4450073883088
97.3660235121369
96.9670602392248
96.711801202576
96.0366627938036
95.1707660334055
94.3713602280098
93.4629220478915
92.2236736023227
90.5997020439861
88.6835066812341
86.1585935134568
83.9369593790269
81.8359432073298
78.4227354964392
76.1359374044536
73.9481796093764
71.9057024060224
69.8513582243576
67.9002801275511
65.8463104007285
64.1642451556873
62.4255112973167
60.8087558644984
60.0452381266116
59.6256865453148
59.6302730447096
59.8289843160755
60.6835985624454
62.5403871167308
63.4338270596047
65.1102229689613
68.4455972420093
70.0156942377765
72.7605293856131
75.2175640916033
76.2583519465987
77.1753227353391
78.2230871688222
78.0940805822843
79.231481103244
81.5950317201522
82.9042566202615
83.0078009407102
83.0851985718248
83.9118508395001
84.8697052706079
85.0265161920777
85.7117351188398
87.1440165167673
87.721385884739
87.7294059170202
88.3772751628142
89.3163771686659
89.8540976452611
89.3853348848813
88.4399416579273
89.673741764373
91.586768300389
91.4120681496425
90.918314553087
91.76073705037
92.50510350936
92.6040497117909
92.4053911813786
91.9516712488077
92.0075431338993
92.8729714583345
93.5286064293032
93.4219009760703
93.3562030292394
93.3829147849548
93.5340386372392
93.7356167723668
93.950105180518
93.7440885773229
93.3868480793671
93.3386513027717
93.617283626563
93.6285089782011
93.6664686415679
93.9896448548405
94.3115483732562
94.5783538158297
94.7414466128428
94.9869777794338
95.143911328442
95.2453666384852
95.2784580715164
95.3801294459675
95.4307113171975
95.4580498528031
95.3599886353048
95.225652048535
94.7410025997371
94.0345910825081
92.9695578765145
92.0568031835468
91.9506276183543
92.9504276715209
93.6787990059141
94.0326535938518
94.5078171037647
95.1300245384982
95.5510199421025
95.5902218875356
95.427103920092
94.9989809468574
95.169482618328
95.9303240741201
96.1697258964771
96.2182576408716
96.4411827938653
96.4108693717636
96.4996795857279
96.1108714756701
95.8748834911793
95.8288335391035
96.2696456819187
96.5534552218179
96.7167972468009
96.5109097228521
96.484708430662
96.5445883636638
96.4215672544968
96.3603159840926
96.1457737269837
96.2838844960464
96.1995671773982
96.4285265007524
96.4120003640166
96.4208287529248
96.5273591545249
96.0866006058062
95.247543403668
93.6666031682293
92.0751526966618
92.4220679272965
93.5363223039754
94.7355045184444
95.6867587092218
96.5549111793396
97.122189072411
97.2952405783976
97.0349705788074
96.9288092947201
97.1457653539315
97.1721520515498
97.1131318771988
96.8152151214322
96.4072711048431
95.960551564935
95.2055269180752
94.7097864468225
94.2746795656491
94.0484687964251
93.6963062802993
93.1285014345665
92.5574942617081
92.1193058533402
91.6212211564314
90.6796015891126
89.7629764817186
89.1785324979167
89.0220897225225
88.6298419290203
88.647713815258
88.9789295897815
89.7688704838476
90.5022188397726
91.1468970907629
91.5064284832464
91.7589834106412
92.2319866581021
93.2110240102042
93.9891954453948
94.5012274242606
95.0729823482967
95.4354478956884
95.6053868538173
95.4810512894822
95.3468601712889
94.9315070856404
93.9294468602396
92.8990737246547
90.9985090614685
87.9673012360983
84.3800422782712
81.8993808630952
81.4431521932001
83.0693801752738
85.4532056094594
87.2403620663053
88.5276357724851
89.4724766476757
90.1376699070033
90.6552936848146
91.0954165204074
91.1896484893749
91.2448179668442
91.4823076040835
91.8285596022783
91.8682149420373
91.6762699169546
91.2881725395617
90.7017415293792
90.1043536252964
89.6476647787929
89.5514614349641
89.6693185041941
90.2160382985712
91.1158499454295
92.1173114305996
93.162429023639
94.0970573484416
94.6061298482092
94.8573880459016
94.9763152055664
95.0571404756627
95.062804266859
94.9418026467102
94.6832019530827
94.307551712552
93.7574788788955
93.1321681297528
92.5558903699732
92.5135872423042
93.024880420065
93.7187464766587
94.2648208028671
94.5485895732804
94.5902600510817
94.401646420672
94.0272853004585
93.5174802985351
92.9311639528289
92.3357604973383
91.7952277239237
91.3322274703221
90.89328893825
90.4691583947602
89.9528875090588
89.2765301021812
88.5331988087657
87.7833914970304
86.9590751634522
85.9656388318362
84.6765711418743
83.0857117666852
81.4016656463415
79.833958462144
78.4050400473461
77.1339325960651
75.9564722580852
74.7853556782712
73.5358110411982
72.2286792605418
70.902264445335
69.5949436294636
68.3259233254299
67.0973166241342
65.8823162543135
64.6658713044913
63.4231067927492
62.1129514194867
60.7582889457283
59.4905453865702
58.4301500278982
57.6812265322565
57.2802998298915
57.0812651475882
56.8506597032405
56.4454859727271
55.8169286325246
54.9827286854798
54.0232075078662
53.0266687606085
52.0235596199888
51.1088019096618
50.3902675610515
49.9580964205427
49.8783679639502
50.179797554744
50.8753201022854
51.9622712018833
53.3591685030785
54.9991453160852
56.7415507873737
58.4363486348524
60.0604467522888
61.7039182029339
63.4093890496827
65.1470272669751
66.867302641141
68.5265176636488
70.0744719772642
71.5249367714518
72.9042766473758
74.2266390115821
75.4831667712648
76.6948565357959
77.8718412386644
79.0034246000405
80.0888725239785
81.1847083317152
82.2601184562421
83.257264692812
84.1281357014407
84.7987821381829
85.1926034120269
85.2538781482352
84.9821357009825
84.5060525065852
83.9998391244398
83.6938797864457
83.8282782289616
84.5416942660053
85.6826514339517
86.8789876354758
87.8463488256194
88.5037723560033
88.8875047107327
89.0632129587656
89.0117341698718
88.737331912261
88.316854153787
87.80815701039
87.2102252848561
86.515867696092
85.652305095469
84.5944382427816
83.4252830156683
82.2311901699275
81.0274640871746
79.8192690767714
78.5852311925225
77.3004962702277
75.9148364943236
74.3752853463658
72.608382910302
70.5989970188347
68.4322322040517
66.2936832075133
64.3600923350291
62.8428138443206
61.9525438256233
61.834329695556
62.3916236376705
63.1079694838726
63.1523295070064
62.0811605454544
60.1763947712593
57.9913147183443
55.879609512471
54.0087134994095
52.4335435139943
51.2098207291598
50.3570859778106
49.8578791896028
49.6337014344757
49.5922060313609
49.6432333926646
49.7609899230189
49.9895223913706
50.450978819576
51.2691234655962
52.5038724727345
54.0376340327635
55.7447517285533
57.5024606880773
59.1628213851418
60.7015152388425
62.2037988255938
63.6628903832597
65.0415633988383
66.3131994709641
67.4498090138592
68.3632225189027
69.0119614647628
69.3863294667762
69.4813655085918
69.3442159758301
69.0744882741506
68.7621776011309
68.5494218167819
68.5445953032283
68.7853100402991
69.2496379297373
69.8650416573798
70.5333470032686
71.2280830245458
71.936609798074
72.6597485473475
73.2933030050389
73.3755508524841
71.8631501770221
67.9044177390818
62.1512156137826
56.9020509201415
54.5026360111173
55.6217970136623
58.7607316856408
62.0192035674453
64.7499934396118
67.0053752759991
68.8149996973851
70.2848933660069
71.54063882389
72.6467643378039
73.5583175640247
74.3075793784757
74.9273070651295
75.3837828490728
75.6724226807667
75.8318257771501
75.9499112324337
76.0894359479117
76.1583199317339
76.1078366350111
75.9176032489982
75.5633598318751
75.1114002269832
74.6732048473886
74.3388420718216
74.1891923219202
74.1891777117427
74.2766358383647
74.3134866828626
74.1586798699156
73.7747025553497
73.3227559391354
73.1241203157073
73.313706676634
73.7149762508523
74.1555936808407
74.6394943637961
75.2593864276972
76.0185613383394
76.8729628882616
77.6986675042446
78.4088244617349
79.015998334811
79.5588285416051
80.0232047617671
80.4357630595274
80.7964118010881
81.0990571566268
81.407901770429
81.8001066883513
82.2192720479429
82.6221481471203
83.0214215494846
83.3640986096386
83.6047033703268
83.7713305442927
83.8144858001988
83.7038437671289
83.3722114373966
82.7714205779654
81.9934899922019
81.2471720504137
80.7190328652135
80.4539726897162
80.3934253865591
80.431438105554
80.4533195550019
80.4923120719219
80.5450259672978
80.5009293106839
80.2123992572249
79.5220986779865
78.2399462384725
76.312288913301
73.8536286115135
71.200671680663
68.9746464499067
67.9589171772314
68.4945077894681
70.1870079639925
72.2858313166709
74.225479108639
75.7469732109759
76.875448327138
77.691009372975
78.1881898639684
78.4337295042392
78.5798004734172
78.6645420113018
78.6537599111505
78.6548845827521
78.7062292668429
78.6830611857129
78.7567383930621
79.0031578007595
79.3019226030957
79.6157401627674
80.0106662135645
80.4335197735406
80.8363459794576
81.1638393502589
81.3904430949635
81.539413469838
81.6737276027432
81.802391387709
81.8520886932229
81.8785114102758
81.9628814725698
82.0388611716423
82.0543661727476
82.0269207177741
82.0276518252277
82.0315705089849
82.0993262902892
82.3333956413574
82.703706342165
82.9372481569838
82.2810929762296
80.4730314290553
78.973014811934
78.9911792554677
80.2272952820642
81.8769485651808
83.4824968382609
84.8431262800762
85.8761342835999
86.6635550560837
87.2218577496473
87.6610115571651
88.0849236688286
88.5025449547769
88.9741040805319
89.6272570959375
90.374648785756
91.0383235806768
91.6176264243691
92.1171136310621
92.5760072889343
92.9504194176029
93.2316241499638
93.5502835308236
93.7031836791589
93.6508127627354
93.5363365914913
93.2357697960137
92.504695433811
91.0205952817942
88.4454426255925
84.2449289525872
78.2624996879301
71.397720181224
64.8382461556249
58.6982885767641
52.667673671543
46.7027370611024
41.2538340992877
37.487104056794
36.5393265306331
38.0904848060791
41.2931752126198
45.4119139903595
49.7643710603686
53.3883136422733
56.0112479468732
57.7213504403622
59.0354257147721
60.2467408961592
61.4410302391375
63.0461990534807
65.0663218726534
66.7532066131221
68.2362035984164
69.5319090021867
70.6385739119811
71.5938213766601
72.3256312236265
72.8526990990937
73.2816818468838
73.606271975973
73.8231627526983
73.8667067380839
74.3313016664822
74.9065253754838
75.5668650106146
76.2857797116594
76.520948899606
76.3929775993569
77.9963202392867
78.6113021662541
78.3680043621147
78.5904110845537
78.630786732733
78.8990819954188
79.3018109554984
79.6921160927269
79.8817328953943
79.9053685061311
