1798
3999.43349933624
650.420452594757
1
128
4
101.091209817021
101.042232904814
101.042318435315
101.082654999884
101.098857554975
101.124060779254
101.142710915925
101.162199296563
101.260374932923
101.226568627956
101.161420158718
101.079231032629
101.136823101629
101.131635248414
101.059544617685
101.002488036089
101.070458993242
101.124582326304
101.212865833505
101.161823722417
101.05610756493
101.060287008758
101.022589846463
100.951129496894
101.012926702808
101.026002352694
101.02613423152
101.000635687538
101.014542856031
101.040005384683
101.047859024452
101.078470344477
101.072006269104
101.061768911853
101.103882521512
100.883079758742
100.854693292017
100.887090551692
100.953487860626
100.993430219204
100.998538221492
101.055712862105
101.041326179276
101.096587453512
100.927675257671
100.926206500441
100.996937572688
101.027977810216
101.005045510072
101.140169037543
101.074065549405
100.679312745253
100.738976123957
100.6808579785
100.724985438705
100.837104407222
100.973403884571
100.966508113476
100.795999951048
101.199886740577
101.064052954072
100.63387517887
100.903409596047
100.970911486804
100.819304761348
100.923756660682
100.960640452656
100.76498730374
101.073722312622
100.492746530433
100.755521609043
100.905986599484
100.856320069687
100.7818189603
100.735392630082
100.779967698217
101.092610393851
101.208195646732
100.456411976861
100.522174575346
100.662352500286
100.898244246639
101.06952940061
100.964708428622
100.939054661086
100.983990733932
100.884306108553
100.749767623587
100.729876222686
100.760851253171
100.688781094619
100.968701706033
100.837520342751
100.865429262754
101.115799796307
100.597665581815
100.634054867402
100.997674313876
100.55359573357
100.838367037736
100.900277863418
101.05759406823
101.070184593066
100.591954653651
100.889965122039
101.114970094906
100.562580579152
100.641302212176
100.551018772618
100.662637177394
100.81289341462
100.865457935323
100.924521435227
101.041654572899
100.999958178743
100.848170090253
101.010858405364
101.040361424517
100.91156823755
100.999318508666
100.895093251218
101.006445926532
100.96403863619
100.827894203422
100.973024937443
100.77327248828
100.853760281945
100.989012894265
100.903045404114
100.915114904884
100.848525897914
100.978171797357
100.884379999159
100.827743551364
100.360063043635
101.096704820126
100.618556298729
100.606781267295
100.6654665277
100.576061217462
100.564136527674
100.480097705048
100.656110600094
100.48612027132
100.734401471422
101.026532983749
100.807908189533
100.767298327578
100.65175313054
100.706574442644
100.776608922077
100.786283484317
101.025544284836
101.054932590184
100.726882767211
100.558656631666
100.655809656393
100.818099012492
100.935778516773
100.81910188426
100.803642098128
100.918750573372
100.890891208504
100.971204296677
100.814230208438
100.829692561492
100.67880182928
100.602847964486
100.809892209272
100.869253113583
101.086653505669
100.938660588956
101.04132341731
100.507151814501
100.504369365715
100.752394762085
100.588641790427
100.605999313491
100.631739965085
100.596244059619
100.675942548233
100.75906852893
100.963389775304
100.997970941244
100.677018221599
100.879469237064
100.786078863395
100.649593869236
100.466096445968
100.301944204946
100.488327419237
100.607015225843
100.68015325563
100.576544686292
100.667436674264
100.727191806051
100.578929104547
100.698879811471
100.118390597935
100.244470107711
100.625736921632
100.771314857676
100.771377735493
100.595169866728
100.349696221469
100.377081828183
100.450503043811
100.4985477095
100.628289994042
100.520671752522
100.304408228801
100.211427457451
100.397594219568
100.508282292441
100.458137572783
100.510511176999
100.514065345931
100.450155480425
100.467735594982
100.491229383218
100.361229407256
100.406324216055
100.412047862258
100.34944070606
100.364182705321
100.283662532575
100.180626074953
100.221013876838
100.36837155982
100.516777084505
100.651403253021
100.506558602456
100.210608478828
100.161381554667
100.217930504353
100.182366649847
100.14319412249
100.123764403414
100.121972739921
100.223208990453
100.412565737491
100.36665870481
100.118290792569
100.01290435251
99.9676354833321
99.9895957462383
100.054534814414
100.112461178387
100.079384460696
100.157036392372
100.139833223127
100.090205916851
99.9934603205609
99.9722439713842
100.11242758532
100.121091474526
100.017843727546
99.8858238096408
99.8539040658735
100.03711034769
100.095184691067
100.115185783444
100.038851503303
99.8702846704884
99.7344363030132
99.7072289082626
99.8199668960011
99.8845660348521
99.9016284583068
99.9490126885452
99.853281747841
99.8261875070093
99.9188990380887
99.8970772078659
99.8306655133953
99.7958076242215
99.8152836239487
99.8905315546404
99.9070110881769
99.9434462316978
99.970669458895
99.916243706507
99.773238070044
99.6965309107163
99.7067160835683
99.8203963490232
99.9163854481579
99.7801603862809
99.6650390432173
99.6926625485985
99.6425713368286
99.5177051688723
99.5279180235246
99.5166525867025
99.5108197124123
99.6406772279668
99.6843790998101
99.6540497332958
99.5713556032962
99.4879368486894
99.347801643964
99.3945266686242
99.4238203016199
99.4382129031583
99.5072074201747
99.4678430135295
99.4355267994893
99.4987216095653
99.4128633017235
99.3438937025168
99.2866190873033
99.290259826528
99.360225574841
99.3401880086216
99.2292103416722
99.2696938858395
99.5027516684317
99.5295180942615
99.3023032293027
99.2349159236756
99.3559014764646
99.4716236382167
99.4569838092804
99.4614669093699
99.4506168811108
99.3919161262237
99.3329839543969
99.266066219479
99.3291418719506
99.3991406289089
99.3925136170213
99.3518280124467
99.3218174381883
99.312583358547
99.2065182815202
99.234714325433
99.3799625516096
99.3589688548646
99.3070594817516
99.3716085729
99.3366919100591
99.2400018128459
99.177263234268
99.2019611437607
99.2294232043494
99.1410237768026
99.1283815105437
99.222916845736
99.1889763267581
99.1690093766347
99.2069050902679
99.2187875404468
99.1817898386581
99.21982132794
99.2084610391976
99.1458785213966
99.1573555496013
99.1701192195859
99.0740147268428
99.0049816502148
99.0952175210617
99.2032678175902
99.193701566247
99.1310128882687
99.0111439153738
99.0102737389141
99.1262745771572
99.1395914484575
99.0891857600843
99.0347597853383
98.9554192557865
99.0430655343829
99.2097072134716
99.2566298698135
99.140513076215
99.083141678829
99.1028650717918
99.0255708264497
98.996399601445
99.0032175568178
98.996313943984
99.0568339122847
99.0380319752529
98.8989800713037
98.8578882725392
98.9501711390914
98.9709590701342
98.9301710565689
98.8673707902075
98.9477265911875
99.0996231953619
99.0111129328316
98.8844450922315
98.9538489102945
99.0390203271924
99.1076728233187
99.1763648790429
99.1443772707095
99.0719338908608
99.0754873525497
99.0627236940108
99.0779080905788
99.1271546264678
99.1511986761879
99.1831525838289
99.2081082223793
99.082797204303
99.0780109598632
99.2012063781388
99.2202414312308
99.1157130397559
99.084281374082
99.1312040158611
99.1609258924548
99.1426812735907
99.1640609820347
99.1817740741682
99.0962880706871
99.1192156526963
99.2493284751959
99.2266219458735
99.1657525960264
99.2219890699783
99.221731984308
99.2356038600212
99.2379343316033
99.102386063375
99.0897541431852
99.2379440339777
99.2456029414092
99.2328767928943
99.3040715041868
99.298457251228
99.3119305155737
99.3557689047502
99.3592090567044
99.3729386427823
99.3881494885942
99.360179669087
99.373445551766
99.3207077413912
99.2418117254126
99.2962791760394
99.3963735834489
99.3807992408155
99.4026662527542
99.4341639336859
99.4593664343972
99.5151371913795
99.5220016548593
99.4675985111156
99.4123805850328
99.4620035014504
99.5071632478519
99.4627346797789
99.4771301420568
99.4334959974737
99.3954562993558
99.4766417081482
99.4992213791799
99.4851061765171
99.4683735548885
99.4247758235994
99.4504144431258
99.5501637308557
99.5231548516995
99.3810902976205
99.3529390108085
99.4017925557118
99.4283807136449
99.4600923026523
99.5074961766032
99.5021111891832
99.5167573596839
99.513701745155
99.4547743805411
99.4919813449005
99.5806172012687
99.5633593071635
99.4502046071458
99.4304440484976
99.4720890559095
99.4488180227452
99.4610493555333
99.4727836958247
99.522453532507
99.5433877099341
99.4247428695954
99.3458670333419
99.420736987358
99.4783612988964
99.4608283798618
99.3985795439567
99.3754159236285
99.4186278468992
99.4578242532229
99.4287218519094
99.4145448458688
99.4005594558602
99.4192789421681
99.4278496717691
99.3629587966842
99.3975038862546
99.4606559788794
99.4397490171471
99.4110212016731
99.4208340597175
99.4728025501754
99.510234990999
99.4501516335771
99.488151986531
99.6210692551882
99.6374121119991
99.5974190889818
99.5542836878734
99.6719766315983
99.7635976743112
99.6861892399722
99.6272481275081
99.6019267742039
99.6032298590571
99.6377976995896
99.624291085931
99.5914857343686
99.5771699496186
99.5550034025862
99.5550995830313
99.5837603590526
99.5581692278054
99.5018471067448
99.4774385688321
99.3921883425811
99.3354007959533
99.3563792908393
99.4130090798551
99.3721291864524
99.3232061470103
99.3166150692529
99.2718557441084
99.2436629194597
99.2297291396213
99.1760614552637
99.0768567339374
99.0123204056161
98.966933377428
98.8929043756825
98.8108628091442
98.725163154943
98.6483540659208
98.5866876212829
98.4728549873462
98.3081104440099
98.064123136819
97.8320075275113
97.6472783137659
97.4796361389777
97.3254068529115
97.1964035707875
97.057130080132
96.9544058015957
96.8955439476136
96.8175306816555
96.775737688445
96.7498954965122
96.7026813590888
96.6030583976342
96.4588519880104
96.406999014396
96.2718024062155
96.0419604874688
95.852008750649
95.5924871705826
95.2861900785783
94.994279060267
94.7448414983019
94.5642827663095
94.4887640981477
94.4744883792724
94.5070797627968
94.6821756640263
94.9213967168651
95.1560322757712
95.4325698681803
95.6437590873419
95.8488052189122
96.0643997669798
96.2024297658417
96.3529752096096
96.5565845634937
96.6596380415042
96.7435318755105
96.8362410628296
96.8578713218203
96.884321453384
96.9994930382051
97.1431681460813
97.2910507610909
97.3819769231845
97.440492394154
97.5314536407865
97.6332022117241
97.7290294023228
97.7126297914032
97.5977208949551
97.5189993204373
97.5256211430485
97.4889737140914
97.3955775980523
97.3082076892625
97.1740663910282
96.9538621334928
96.7321636898241
96.5496065200969
96.3060281241997
96.1258267740898
96.1474974735508
96.3253364100783
96.5841516705763
96.9033274620831
97.23241689413
97.5385344081135
97.8383467872154
98.108817611134
98.3551201567018
98.5363061916783
98.5759969923666
98.619993721954
98.7126803380303
98.7655530542168
98.8123596855116
98.8439673029362
98.8796301527519
98.9617968056961
99.0319533563502
99.0584276352268
99.1108247745961
99.1452170263488
99.1210536505335
99.1556476298127
99.1987907768169
99.2109890067167
99.2378014932617
99.2623906616957
99.2944744896836
99.3105542370473
99.2692613097608
99.2444741439266
99.3274028366434
99.3460726702467
99.3139790182421
99.3272483566097
99.3824754100388
99.3610642145434
99.3407589276359
99.3808121722474
99.4077177494832
99.4335755494657
99.4610926515411
99.4771250371607
99.4962920567405
99.474016705372
99.4725551895443
99.5200112260525
99.5188313751997
99.5086195373964
99.4982856086026
99.4935616133863
99.5071415093851
99.4889932179907
99.4883393701017
99.5045278969189
99.5178437278054
99.5196417666163
99.5439314833695
99.5792994710282
99.5728834084412
99.5203191814083
99.5364463116359
99.5905766101101
99.5560877706317
99.5598299613368
99.6308914679573
99.6332370173135
99.5820859539123
99.5481492262128
99.5713412148333
99.5909409512363
99.5714340075317
99.5935444998136
99.6639728017632
99.6779304044858
99.6273862973971
99.6029395243492
99.6136286698921
99.6069616228457
99.635197399015
99.6580389253416
99.6569878646616
99.6615481419484
99.6441023870939
99.64323769021
99.6648429328825
99.6610224264575
99.6308694638832
99.6390669566887
99.6609493285705
99.6880114703093
99.6774096298496
99.6801036912842
99.6878037834105
99.6708018989268
99.6491811998519
99.6334913841293
99.6365420151431
99.5985754398642
99.5599017105448
99.587414443698
99.6540274040938
99.6529098918569
99.6347592739504
99.6271475695063
99.6892628898573
99.7158222134068
99.6552260675026
99.6515735455334
99.695761628744
99.6921610554976
99.6778250854101
99.6312224406599
99.6390636396698
99.6399812665533
99.7087162649492
99.7577496962125
99.7092363905786
99.6996625799711
99.7203939826984
99.7706867945458
99.7814565069484
99.705834039613
99.7044971982504
99.7191159984188
99.7706192167453
99.8157288226385
99.7922333583786
99.7524793447645
99.7677519574313
99.8893622861427
99.9274074540223
99.871512279527
99.8581390496605
99.8632212602949
99.8124201911504
99.8190544221929
99.889426225091
99.8631474808541
99.8835273673173
99.8817655192306
99.839166029129
99.8569527389666
99.8566706407438
99.8498131289002
99.8289577723204
99.8479281696436
99.8820352886039
99.960350863992
99.9718550096277
99.8529209748303
99.8247307631238
99.8241802977036
99.8201604053433
99.8726552903179
99.9131714254782
99.9640761126128
99.9677118883792
99.9561887126845
99.9857593015095
99.9631134244825
100.016542025655
100.027662229358
99.9288202600298
99.8790458930947
99.9289912373383
99.9342628221732
99.9438812005017
100.021693317689
100.121140149748
99.9944768377284
99.8913683129636
99.8936906098901
99.9212887744962
99.8739948562584
99.8091648393182
99.7993444593725
99.8510511164788
99.8539832155223
99.9593696200817
100.032221530023
99.9491026772556
99.8725906741722
99.9440790662489
100.024155098946
100.030980841676
99.9470135950059
99.9185039697203
99.9312077972485
99.9326700322785
99.7720884206115
99.8154167772631
100.006890445679
100.035567277828
99.9211660745631
99.9286047038911
99.9924756103709
99.9519205190104
99.8886858343423
99.8985363789556
99.8929704865256
99.8695628922861
99.8682247991852
99.9089942196513
99.9383400001928
99.9667697206061
99.9235141197335
99.9224146330293
99.9232380352275
99.8877469307646
99.8939324299852
99.9411633706311
99.9431377198774
99.9154738581399
99.9441469801661
99.9251956589005
99.8603942244888
99.9190322304425
99.9570701189789
99.9425888623983
99.927583315692
99.9435004256637
99.9229287349695
99.9133102580898
99.9211031013952
99.9197052872529
99.9129280304156
99.9748585255639
100.002045824781
99.95264101738
99.9178674626014
99.9057137044328
99.9528682491816
99.9945009542025
99.9078269794564
99.8896828034524
99.933410228544
99.9313048767026
99.8667201135127
99.8230724685481
99.8097859983388
99.7994208741306
99.8590226132542
99.9209541764797
99.9151760545571
99.9003269029953
99.8076856982853
99.7521502573221
99.7735207270191
99.804203293922
99.8303742766344
99.8344846678703
99.8182523287967
99.8617180835121
99.9000474588772
99.9095171074345
100.014199762048
100.233082104234
100.231548713886
100.019017536306
100.130106710126
100.229642274635
100.156904333631
100.104782569507
100.066844551748
100.100089145165
100.012837516626
99.9128635469998
99.8526993816437
99.8012800128113
99.8407165531601
99.9542103649679
100.111281803911
100.080895015013
99.9705508933515
99.8901941441284
99.9051955170053
100.034668064101
100.033009523203
99.9323361160243
99.9454213397742
99.8003600806918
99.749193431395
99.835961808077
99.7792653346904
99.7313992143094
99.7351447235397
99.7543329764917
99.7666602573081
99.8785075426028
99.9309552720721
99.9566341262347
99.896518445861
99.8216215161178
99.7793078923602
99.8216450654174
99.9338090149565
100.006628613778
99.9617110117973
99.8936521827751
99.8528330755284
99.9577431019949
99.9295967785585
99.9753899890609
100.110979402474
100.062468564175
99.9350437706208
99.9509648041162
100.000569815808
100.073752609098
100.038078897802
100.038831301234
100.063485303008
100.251859595816
100.28811579885
100.254005833417
100.289845871684
100.355656877186
100.363580985901
100.357531981594
100.425709250137
100.444065661023
100.330552200235
100.299267054757
100.21838562812
100.360712273095
100.389904890084
100.337377777613
100.453765287436
100.746630044319
100.582052923366
100.381679898206
100.488692788377
100.525045235561
100.413211493772
100.358039916938
100.497504610135
100.730079372573
100.464497183936
100.433650047643
100.786946375983
100.800150679808
100.480558666939
100.544294561202
100.664428287128
100.830229498958
100.731627646448
100.618752465159
100.797803387771
100.96880442374
100.966957468419
100.946011992868
100.539571973145
100.585149830352
100.814649682162
100.559446029511
100.647785399379
100.973243884612
101.138132501883
100.875927120655
100.398064433696
100.450403420203
100.850565392237
101.178683539832
101.15925822684
101.290792328979
101.201479198388
100.880012098465
100.819518228726
100.99773746358
101.028818911102
101.311870966324
100.82282450615
100.674479088053
100.745852037309
100.493835050374
100.323982354933
100.597087234512
100.50749518989
100.634998933579
100.75577547109
100.774926058147
100.526428747215
100.32281590926
100.208275820914
100.368616505486
100.510934277904
100.403005242666
100.211370802072
100.101592743652
100.162318869687
100.113614381362
100.004190230561
100.109756353958
100.075020101298
100.136566794874
100.16467711096
100.053036186638
99.9854903510928
100.088299401246
100.181571639228
100.161749522747
100.075312880118
100.11871537888
100.172388764095
100.184138560255
100.06117167334
99.9677563589613
99.9734614049808
100.051611664041
99.9535221988905
100.027367908165
100.076826336785
100.128648879186
100.267157470265
100.271224394835
100.07088742709
100.036083274154
100.043747789208
100.230718612254
100.454622504143
100.403188668304
100.222223217995
100.204634730368
100.299841498689
100.45665450299
100.411893210397
100.386298487787
100.353062459025
100.15953020738
100.230667215372
100.705441575485
100.793955842692
100.899933761537
101.174806177562
101.142902476018
100.898963378119
101.231410136634
101.460404340623
101.1842419859
100.633725798329
100.666078268984
100.815554169626
100.640373802532
100.65584616993
100.863892596752
100.618885920646
100.437477399833
100.130588750806
99.9366430218235
100.29409525808
100.671508337484
100.638013530364
100.783364910638
100.678297353859
100.430409446778
100.385313002012
100.61602801307
100.524496082882
100.585426346464
100.773463880223
100.523157410646
100.237121412462
100.399940501909
100.512445076728
100.281613633074
100.110403283011
100.276332856112
100.522337751818
100.77091007384
100.622376977757
100.642200413648
100.693404447213
100.66773044369
100.325786154445
100.132265093451
100.192112929696
100.151671580495
99.7611682135201
100.030445507249
100.183305330181
99.9658121187894
99.782269658101
99.8175738018315
99.8642511923068
100.148921336066
99.9562345271822
99.9601234320517
100.033610482282
99.8600665755803
99.7362384826423
99.7988084801258
99.7162439549623
99.6627803280327
99.7087687779552
99.7741592285007
99.7748039714641
99.8370618023094
99.8617462683242
99.6916767817759
99.6876283564761
99.6688804977499
99.6773472025197
99.8763535549396
99.8656681220154
99.7585384787733
99.6625526783551
99.7050345530869
99.832422984191
99.9518454447938
99.843418780564
99.7695833533524
99.7234451658192
99.8202632212195
99.8011806322125
99.7775637374608
99.6086076199602
99.5153370617409
99.6468537877245
99.7362603479727
99.7449671127937
99.7716812914728
99.6838317630683
99.6367523202293
99.6515879597865
99.6995281880113
99.696814329358
99.6791987050123
99.5663873227357
99.5911442643637
99.6312898516116
99.6512790220144
99.6092629692029
99.6575490316894
99.6878171404379
99.681614562846
99.6087297647484
99.6285298964079
99.5907650501135
99.481492659902
99.3962917419974
99.2125282667857
99.3649547034653
99.4787401039609
99.4403436597157
99.4585068832722
99.4117596133663
99.3693626920368
99.3416177427801
99.2038651396903
99.2759874279562
99.2314056822336
99.2846315925069
99.3245783688925
99.3022500284259
99.3342192405891
99.3499796284272
99.3368603290174
99.2826948949091
99.2348145668536
99.2814734729705
99.3288887364531
99.3075824144893
99.1941572820754
99.1017079226362
99.177880640103
99.2328522730213
99.19811638425
99.0920991567386
98.948463981948
99.0973914773691
99.2057167832632
99.203176106746
99.0752976045508
99.0959014929135
99.0392802805209
99.1358267456771
99.0669447673348
98.9437349446849
98.837542800174
98.6365212206681
98.7832371260048
98.7799937967253
98.8234630942985
98.7361224669404
98.5487304646253
98.3784304316739
98.3502754946176
98.0912432424133
97.9961620319364
97.6003637031992
97.0386646348839
96.6255669773977
96.1991328208945
95.6052493783319
94.7749302532564
93.8265827946176
92.7497294640572
91.794846990228
90.6727620382021
88.8477757463645
88.0620708424798
87.2667163779309
86.5229067669542
85.6936889703425
84.9096326323014
84.0807963454559
83.3728211480115
82.2674039664689
81.2205597189679
80.9792548773991
81.084461300342
81.3420195809798
81.496834623895
81.9254520227007
82.6416945472465
82.984516242796
84.0259809430181
84.8601738770835
85.3535742844812
86.572107297721
87.4607042476319
88.0314164019242
88.5203610986981
88.9809835650742
88.9893585132432
89.4734087912489
90.0186620799956
90.6190679250642
90.7266916818879
90.9418229249689
91.3040302012801
91.594773639748
91.7073237206336
91.9715060452939
92.4729296067288
92.7472627619641
92.8387733468861
93.0499310063511
93.3186818602053
93.5568900846267
93.3752187213489
93.1344093980802
93.4347529613465
93.9288989781463
93.921765360594
93.7852249730363
94.1174005969554
94.4866175543414
94.6375352623681
94.6079044754973
94.4393242422636
94.4575539152674
94.7086243472634
95.0493920337811
95.0850232826919
95.1609229582327
95.1702641332699
95.2715660292505
95.3458105092628
95.4126184653691
95.3833032621741
95.2770304319206
95.1875673225987
95.3798499379203
95.4753041102686
95.5299167027406
95.6796336140889
95.8356023320599
95.9904423756542
96.0525099317912
96.1908416521802
96.2551470422172
96.2561497095681
96.2164651306984
96.2770379250152
96.2802439057277
96.2467302641011
96.1605302111774
96.1020700790922
95.8479484460351
95.5321148336224
95.0722020701826
94.783791798147
94.7575086646328
95.1195038859501
95.5007034535483
95.730113257002
95.8800825332221
96.1423812679942
96.3237103237001
96.3175129580543
96.3539435901267
96.0960981096039
95.7198801935112
96.144040637213
96.3723321181711
96.4315759437895
96.5728125698375
96.5212085447112
96.6074327536534
96.3389011400809
96.1784513525739
96.1179549887011
96.2443771588745
96.4488439493572
96.6964275323507
96.6039174141882
96.5900285469263
96.7140806312382
96.7058385975842
96.6693612681732
96.5193655171113
96.6370665785995
96.5066194593145
96.6532368464936
96.6391128475169
96.667158567249
96.8282184191951
96.65278840351
96.2756852241415
95.3930273211688
94.561711964146
95.0444856878761
95.8724030776943
96.590767626907
97.0420710584318
97.3569013519758
97.5632509821502
97.6738445395769
97.4972878247197
97.3718416018184
97.5123977661084
97.5485421880691
97.5597672149818
97.4215593321667
97.2236104076908
97.0312444572309
96.612806066444
96.3350542762759
95.9747843659739
95.8055598941966
95.7072292795506
95.4622617388456
95.10910786059
94.8671403370679
94.7132198727898
94.2301999472223
93.5450258113098
93.1122488062069
93.2855179964619
93.2768605900224
93.4394309720576
93.6296419833273
94.0101195934102
94.3759903504886
94.7110544351326
94.8748053314341
95.0616915319225
95.2541266803394
95.6379628107682
96.0435405623624
96.3249179774809
96.5804975773575
96.6828068303074
96.7394127293059
96.6124596268699
96.4993763652821
96.2017418114964
95.5142522573073
95.0047036023461
94.1150501509941
92.7332988077152
91.1686759624501
90.223297949385
90.2386274955223
91.1368798454144
92.2526931652195
93.1007694917817
93.6253063754398
93.9362993946139
94.2203197315685
94.4218084922649
94.6414215680815
94.7151922694942
94.7349634027853
94.7601255686557
94.9222592983855
94.9486245952265
94.8428426756344
94.6354615921609
94.3254213392644
94.0389001365254
93.8358971399055
93.9009261952165
94.0520405514877
94.3497147848172
94.834645185928
95.343340262727
95.7698313230912
96.1816730629684
96.4337303936623
96.5494425257751
96.5709460972598
96.5971181688859
96.6089720149488
96.5589445643077
96.4405407622782
96.2973716563251
96.0838647402197
95.8221172227943
95.5641284981032
95.5995580738164
95.9057912881278
96.2598199161105
96.4849149720815
96.5559795966248
96.5225702746022
96.4069954768709
96.2104891389205
95.941263880349
95.6524129034009
95.3591638061963
95.0962821714489
94.9004306454962
94.7105143717942
94.5102459079328
94.2479982048007
93.9096320537947
93.5643600145067
93.2128488094932
92.795202864026
92.2934819468902
91.6608786736979
90.877935170004
90.0522491617007
89.3327566998352
88.6870028367204
88.0790644535673
87.5221543452924
86.996637946692
86.419977546446
85.7939600081956
85.1453690001287
84.5129434114282
83.9098371428264
83.3199168135572
82.721996113383
82.1218668684503
81.5046843348893
80.8430625159538
80.1508939087289
79.5035552282735
78.9456616988355
78.5483890626738
78.393380410246
78.3778088231237
78.3051326233437
78.1014435284545
77.7901107742285
77.400244598707
76.9275910739258
76.420024020901
75.9404511962729
75.5054651624311
75.13775100818
74.9093400943003
74.8494584045772
74.9651617476127
75.2538188116424
75.7143770424755
76.3265663817884
77.0615145213524
77.8233709699298
78.5611087485216
79.2943953470712
80.059047887108
80.8618250540269
81.6891610426468
82.4969113437383
83.296224774733
84.0674345983074
84.7706806170912
85.442595215875
86.1116061248102
86.7525835905947
87.372147006892
87.9588612343748
88.5274357891444
89.0885482357294
89.6479857951591
90.1850848710286
90.6826948300184
91.1074132145324
91.4253484814488
91.5969018583645
91.6068130369559
91.473736153779
91.2516171976515
91.0407092454534
90.9515730969755
91.0624739646938
91.4434460082837
92.0269109975083
92.6097957662735
93.0585585415339
93.3576383215859
93.5131550790898
93.567037257903
93.5195436444062
93.3845995467088
93.1865535783652
92.9455533698274
92.6694255647412
92.3270286322441
91.891287239043
91.3700545644286
90.7972210054088
90.219071331281
89.6288677535299
89.0241183144762
88.410989055052
87.7792989765823
87.0796309864084
86.2929051764699
85.4087302055797
84.4176635274158
83.3655807246132
82.3395094350082
81.4066122088802
80.6917893682573
80.3009633986913
80.2747153498726
80.5512539953229
80.8750476365129
80.8540184719599
80.2933362934884
79.3160577293871
78.2101177090618
77.1645401160152
76.2462335263572
75.4554520752368
74.8162072102058
74.3605384090928
74.0896542218367
73.9479241295832
73.8832214603819
73.8659954805636
73.8911421584644
73.946367285143
74.1122997937897
74.4556381516817
74.9905680791063
75.67755031315
76.4348410538035
77.2175805532097
77.9988883536593
78.7345607641122
79.4486560253968
80.1509410470638
80.8141303282499
81.4128955479319
81.9820644930307
82.4653623080622
82.7847054419024
82.9419236294116
82.9710460580847
82.9037029097958
82.7568435019399
82.5873673229971
82.4990029915169
82.5155462112803
82.6368264300856
82.8646598178312
83.1810438696762
83.5327346223748
83.8799141562357
84.2048724911884
84.5339814250304
84.8234627358777
84.83158471328
84.0690102836989
82.1257079969498
79.3143640025404
76.7780173971987
75.6420054387305
76.2058798395527
77.727214953558
79.3194721604081
80.6516244143204
81.7493730160888
82.6568245723754
83.4107810988879
84.0523025156381
84.6170813544582
85.0958774927058
85.4922604838085
85.8233394512625
86.0813026188881
86.2745729897887
86.4048759646639
86.493075804994
86.5912445216732
86.6662194439279
86.6730649420515
86.5956479446398
86.4296270389862
86.2143981450549
86.0203785791016
85.8700753937492
85.7926682372184
85.7912123493372
85.8271703350888
85.8334947591901
85.7698165773431
85.5782250630808
85.3401612079925
85.2616437108635
85.3741798054767
85.5559959126807
85.7710863750179
86.0199738526843
86.3300960532004
86.7160029568278
87.1451810179753
87.5407108172795
87.8930611797666
88.2155761102276
88.4971991888589
88.7355079723054
88.9278730224605
89.0900870949113
89.2659470717813
89.4438249656644
89.6488660065586
89.8769233192337
90.0890056953735
90.296479747569
90.4902916718942
90.6300474026709
90.7006899958541
90.6984366566981
90.6391252152034
90.4658089707455
90.1459558998598
89.7483189809494
89.3764067068554
89.1214309741011
89.0109073721262
88.9816175539523
89.0072210675647
89.032091880915
89.047048676894
89.0479451732534
89.0039804175341
88.836970700134
88.4707402847697
87.8074975414758
86.7739712302395
85.4614929424753
84.1172470631044
82.9713413778909
82.4688329240699
82.8033813303769
83.6732112159228
84.7288712363501
85.6965543104581
86.4310233314122
86.9647096390673
87.3574033874614
87.5963427100235
87.717691687527
87.8390346823808
87.9013626300262
87.8420458500338
87.8004020304775
87.8227795118287
87.7958210065167
87.8260061017127
87.9924001285178
88.1574815797819
88.314963941512
88.5092013454033
88.6593557254271
88.8233491892547
89.0282001197836
89.1644214161466
89.1758101331399
89.1992912890784
89.2498229022425
89.2314773402053
89.2254910480356
89.2515363807119
89.2357518989644
89.2180958984203
89.2159370778166
89.2111419543926
89.155220375509
89.1496118137963
89.2258060865452
89.3429923525417
89.4157178925807
89.0851776464553
88.1789060922646
87.4757776316414
87.6127430580958
88.3089528422161
89.1671897288333
90.0711100286761
90.8360502272598
91.3784172611413
91.8255948182773
92.1357783601603
92.3491125451662
92.593372416057
92.8592235226476
93.1270862943285
93.4297875425665
93.8765311145479
94.3162772673185
94.6272544367847
94.8928413297761
95.1058207452591
95.2547542247105
95.4381720889351
95.6317246818532
95.7820499340685
95.7652664212452
95.5697770767738
95.3060380262222
94.9351339187807
94.1951160286615
92.8034863493031
90.5049710038554
87.2436114654769
83.4646984667522
79.9138614123013
76.7098115333227
73.4382346342292
70.1163773538964
67.2167967706051
65.1022277539969
64.4477274665339
65.15388385437
66.6978925010886
68.8320152183182
71.1247197681097
72.9630780304609
74.3070263694888
75.21145316622
75.8445407503648
76.3918622659133
77.1165899230971
77.9966225424797
79.0432842028774
80.0201779426521
80.7455265898375
81.3886143265644
82.0571532462363
82.4995144240042
82.9012782154769
83.3489117786007
83.6645738799034
83.7192737283689
83.7028040537445
83.7649072939148
84.033522049569
84.2818462420418
84.7820435747495
85.2607516600206
85.3679384952876
85.3675033023204
86.3890308227625
86.8457401154748
86.5460617391879
86.3611919992407
86.3608913809625
86.5601258326819
86.5658958966399
86.4559955160393
86.7655305964311
87.2163009380101
