1798
3999.43349933624
650.420452594757
1
128
4
104.274732430562
104.253303013415
104.216453919018
104.199334429143
104.194885695877
104.169766506162
104.214212251296
104.240565778971
104.297197884346
104.229472217797
104.196024725483
104.052227893981
104.126412050995
104.183316449381
104.146869013006
104.058170640964
104.117520061491
104.183438058544
104.313067863035
104.196301754891
104.029038570115
104.003724948151
104.100529840733
104.120538552393
104.160712004315
104.111608818024
104.07399565023
103.883078855107
103.899487692748
103.932881490619
103.86303281125
103.919842447994
104.054557899921
104.104445925221
104.127368639033
103.805413031997
103.82623252723
103.77751679334
103.811291607762
103.797158828055
103.844440754275
103.894462062255
103.840750726048
103.850791295208
103.702885868198
103.90240211142
104.030430819742
104.07652011088
103.875204248579
103.886647309881
103.669860065992
103.004884706032
103.227397476287
103.330164105513
103.546033733282
103.594162858065
103.738522357999
103.712332821331
103.358720502213
104.041477801773
103.874497823858
103.251720882133
103.505561508947
103.599935228497
103.520946795377
103.685850170669
103.502650455949
103.260272827957
103.855803227895
102.848365172133
103.448298850894
103.402828573508
103.435153631523
103.406551506788
103.538159364221
103.396704622222
103.747498537972
103.89324972144
103.036562374719
103.262940958954
103.353737118339
103.613814765782
103.856109337319
103.616919826989
103.495804874844
103.420689536943
103.407145820564
103.31949758502
103.42528093108
103.53958972139
103.453854470041
103.878880697963
103.465307658739
103.462380463715
104.098594415575
103.196580165184
103.171268404365
103.676841056808
103.162821429181
103.737698357128
103.583619570972
103.895587513295
103.974379178675
103.146599148811
103.511268972955
103.54787218327
102.98078807259
103.352697777169
103.148850704157
103.504400390601
103.769557878182
103.803531356342
103.677288699531
103.745114847324
103.684228207226
103.470492981155
103.721427239275
103.692360670559
103.619737508395
103.876897033548
103.726533980049
103.984875869273
103.753001045977
103.593068016996
103.890439023734
103.446139818037
103.692947257124
103.747968626774
103.463006375653
103.345907030112
103.342229496532
103.565899953324
103.315941649904
103.088430796065
102.415554615544
103.869805725454
102.940192392556
103.171121773655
103.140629701146
103.131269373627
102.675209628101
102.37360412968
102.934978523439
102.888538390698
103.278637658843
103.509614989418
103.279225646496
103.342087509599
103.14493848838
103.41051749234
103.424856312559
103.31716616482
103.572848595418
103.563693718097
103.186747811177
103.125682393973
103.259462520384
103.517526788476
103.68119248421
103.445760278756
103.572477029056
103.785501586477
103.632314266384
103.728155451427
103.321830891311
103.370876790359
103.174035335391
103.245066234521
103.422898510233
103.530058010646
103.697032102219
103.262468465647
103.578595471393
102.445220223643
102.71160867083
103.116966760315
102.870404303551
102.98955928467
103.140123378265
103.277524614924
103.441959627059
103.319392760302
103.472354141
103.413224609773
102.991233748444
103.2724916629
102.892438914167
102.540252878749
102.278488064066
102.491258396687
102.856979240693
102.908636317732
103.11578414242
102.920550916695
103.062884319554
102.966020944796
102.634705071357
102.898624201755
102.090131738354
102.4479710746
102.739582587248
102.93410896939
103.043033254872
102.675401413982
102.245495061692
102.47248264322
102.467869212236
102.489700910724
102.67855648874
102.525158287752
102.490937503191
102.507722949313
102.551692225083
102.605641684418
102.606334490291
102.64517222538
102.56710652814
102.476490391281
102.407831141397
102.340339388594
102.180520802529
102.48247220527
102.656185263145
102.533977415949
102.476181589364
102.453406321162
102.278770521689
102.330143566414
102.505802289388
102.52419410941
102.520562010573
102.11904982978
101.776160535742
102.000834861875
102.213841561749
102.18175606726
102.165581323283
102.110105072865
102.034410456071
101.955225011042
102.053171803715
102.148515553508
101.963520522213
101.796512723357
101.849556107906
102.010496918579
102.032052187439
101.981244124321
101.928626381384
101.886806862375
101.815950283
101.808147686315
101.65597728018
101.779306018512
101.768668658919
101.627169261567
101.72078333943
101.778739163973
101.746353227397
101.926485071544
101.882103145187
101.716241287702
101.591213941388
101.531868868462
101.546264483591
101.548149446707
101.365269075132
101.324473380223
101.354021747173
101.436003644991
101.435770667899
101.469945969103
101.492704391744
101.397440916552
101.366766929558
101.497688400436
101.538385328872
101.494148801337
101.246567623412
101.205269408789
101.369982538812
101.344478776534
101.148555069922
101.083901280883
101.050539204345
101.113927535488
101.193160317964
101.15902257578
101.04836527815
100.949399691638
100.826483589832
100.873878116673
100.980402259554
100.901310099327
100.760824037936
100.711969264227
100.689573522461
100.67595630443
100.547563055129
100.544542495616
100.386288415917
100.261302221114
100.325294583603
100.426391634673
100.313811629883
100.323665275186
100.476480132258
100.556691939823
100.358321505657
100.236881801374
100.201258100747
100.269870091701
100.319259511624
100.316421751235
100.373589703866
100.460634509588
100.424233523361
100.403034017945
100.182962023613
100.123877807382
100.201268646645
100.196726087111
100.31972135846
100.515006898514
100.346900743252
100.274961252888
100.369149239391
100.362654831956
100.384559504361
100.428246373359
100.386072677176
100.309808303
100.262729841498
100.30567612502
100.272750980401
100.196866668546
100.148950503199
100.185585619045
100.163089069491
100.234383112874
100.235884755924
100.094299040292
99.9167111729999
99.9423482078905
100.083192195812
100.069946926892
100.018610948824
100.017094478054
99.9731661901255
99.986742678234
99.9256269908553
99.8662055541191
99.9048855681152
100.010853227425
99.9340484878394
99.9140018204354
100.054273042918
100.097057613948
99.9609404958138
99.9104628320218
99.930606101675
99.8557034601058
99.747756091657
99.8293456514998
99.9225330908456
99.9029652396985
99.8681790743327
99.8916561545712
99.8368257682211
99.800013111207
99.7758128618885
99.8921675731337
99.9694878092657
99.9557643769628
99.8605688255107
99.8858475695963
99.9579747213757
99.856509963319
99.7760541146165
99.8325730691908
99.7509407860899
99.730547141773
99.7089465045151
99.6362384237871
99.6466810561704
99.8119128501502
99.8412000570465
99.8134853506232
99.7419322171202
99.6388908912426
99.7358996626655
99.8260775068264
99.7771803677111
99.7846426282502
99.796634070435
99.8948782731015
99.9413774831542
99.8574491661772
99.8247364101879
99.9338271576155
99.9684406285215
99.8825203193809
99.866342716991
100.009205855505
100.046136049921
100.003940879263
99.935866135207
99.9482157832942
100.023516846743
100.048981587288
99.9926235925978
99.8990482679492
99.9171087511761
100.030832836426
100.078078916699
100.099209628538
100.078848100018
100.030283498473
100.038099211386
100.034267785759
99.9787137296371
99.9980591655148
100.050722781454
100.090088968886
100.098474860464
100.053237419754
99.9539336607751
99.9208042393755
100.012686509185
100.050889759346
100.092909764224
100.173921194509
100.142888732782
100.15781289391
100.183852987309
100.218664574257
100.305807787444
100.32506872967
100.281649435668
100.306848895633
100.321664479143
100.389920969514
100.354858834013
100.322504850073
100.261003660638
100.274713312894
100.427407838017
100.507577048713
100.468587440124
100.454687363454
100.448597286472
100.401109900905
100.350192508305
100.39732311616
100.407227806987
100.423354809156
100.420296761538
100.41773890606
100.433327219944
100.456253921921
100.504303993085
100.545312120643
100.514738374461
100.472996905114
100.493386805728
100.490718287148
100.353136001522
100.373348939652
100.481162266264
100.401306070279
100.327939466131
100.459552793525
100.510316237407
100.472666009782
100.485530709905
100.508973728427
100.493170849114
100.528418747407
100.518292815361
100.402958037077
100.325822201267
100.355375853446
100.377368460382
100.389992491095
100.401687565135
100.495028149521
100.475462953629
100.399095788669
100.320629275249
100.32423260307
100.363414832126
100.377830993074
100.326874830657
100.281857975495
100.277991323225
100.306298101436
100.283970241456
100.237731050283
100.198215534688
100.229545835829
100.24544390925
100.217758283901
100.248093219398
100.245566197665
100.135772740812
100.16586200341
100.227887017448
100.26300713703
100.253276884613
100.229791668466
100.308301467864
100.407233986617
100.468003041783
100.519626348246
100.524516771974
100.598314048925
100.681574014606
100.67957708157
100.610454439387
100.605857480162
100.656888650886
100.652701937134
100.551258372168
100.566247908694
100.582860655275
100.518309736651
100.460263221891
100.416255600639
100.3243331162
100.267095176121
100.207412582163
100.059958806694
99.9438088002178
99.9263022922089
99.9066937037322
99.8216941451233
99.7736953914041
99.7771542872898
99.7176122513966
99.6413985420016
99.5995346374447
99.4973825351495
99.3534554419054
99.2067124070512
99.0356496071563
98.8927232123542
98.7390832244844
98.5506477874756
98.3120585829007
98.1043886734557
97.8566357756598
97.5269994231966
97.08578518384
96.6568290875063
96.2127390346886
95.7760399239128
95.4211807363248
95.1171187949909
94.7670152432288
94.4949134536239
94.3080998035501
94.1444596759278
94.0460997825433
93.9557130063723
93.8376003317731
93.6710837992317
93.4302581211644
93.1531858009431
92.7302870436074
92.2258350280639
91.7083458687226
91.1211377216365
90.4313634549864
89.6922254338091
88.9446187912467
88.3356146903753
87.9685776366874
87.7142148396953
87.6012186259685
87.8162177059193
88.192020308225
88.7549125639394
89.516445317129
90.2004145468034
90.8431081660217
91.5060879631368
92.049694384606
92.5145396920533
92.9594585163392
93.2916621563808
93.486118412848
93.6965584888644
93.9273757211726
94.1010491195413
94.3031196749947
94.5920654476625
94.7988225032179
94.994344048031
95.2120274776234
95.4754954725492
95.6543821079642
95.8235084708522
95.9214184074666
95.8641386717015
95.7856176995571
95.7364058150135
95.6382736692688
95.5095557508403
95.3259673237991
95.0908450192657
94.6978184433641
94.1242871995421
93.4323883791148
92.637211789715
91.966749993772
91.6748627644938
91.7340764909722
92.1613064497857
92.9602523963308
93.9053092375141
94.8489626353523
95.7193946815076
96.3953388445272
96.9697188497234
97.4653971039667
97.8118532447514
98.0872823026228
98.3224800844019
98.4942572589736
98.6554660403628
98.8303681501911
98.9583631695796
99.0364081813626
99.151134570763
99.2396654367697
99.2997009017283
99.3172817013878
99.3517006697069
99.4533214390979
99.5596929919346
99.616645426513
99.6512152036088
99.6501340178682
99.6902028273446
99.7348449979684
99.7808438766111
99.8468857861983
99.8882313700479
99.8773248525407
99.899696423117
99.9174772389577
100.011797776486
100.02877249165
100.021729986477
100.065427203589
100.032656689032
100.04782514646
100.141404607497
100.187910267489
100.21019647744
100.178468387782
100.172896992081
100.217620611698
100.244830125821
100.230902311094
100.237286597765
100.260948389918
100.290779482687
100.271790345656
100.271696368282
100.311483500875
100.321999088599
100.27205843424
100.30511819545
100.354154593193
100.340144327467
100.292037474607
100.353152809953
100.401704973773
100.391061953497
100.414016843676
100.43852217723
100.397282620136
100.370489215749
100.384171578422
100.42378533114
100.435782203012
100.456763468781
100.480305925001
100.499608252241
100.512887621817
100.510894209616
100.522473308153
100.545598283981
100.521282689479
100.513262450864
100.525407725813
100.551123742229
100.57535815487
100.570867041277
100.547244461013
100.563549462193
100.564902999212
100.55175909842
100.540059405678
100.553692501335
100.56183720605
100.57296664838
100.576222830524
100.570827999081
100.574005122569
100.541438982581
100.497598719505
100.534737023207
100.551762437598
100.482875707885
100.462588107969
100.546968442366
100.568247064262
100.556303293331
100.525946668187
100.571208905265
100.616464044095
100.613152552357
100.626339548493
100.603646145332
100.576961423899
100.597714543832
100.590752499495
100.626607417155
100.685610778689
100.704778189596
100.7086309111
100.667120593491
100.657395248399
100.708952444206
100.730754694296
100.721189195083
100.707501241692
100.769611488431
100.734106154596
100.779761481065
100.862272055258
100.859870740288
100.853280325909
100.879341288097
100.928049731857
100.93136313477
100.864305923688
100.887467338883
100.93789497616
100.926341405578
100.934719072116
100.990863362305
101.005448681661
101.032021088391
101.081079957742
101.105088632593
101.075669434008
101.067477000915
100.998181616726
101.002069437411
101.061405928602
101.056422064702
101.019779036212
101.051589010407
101.070642853216
101.072138430516
101.044911981893
101.05559132861
101.077744981438
101.152439521078
101.171158676361
101.114686714636
101.118122859207
101.186802862217
101.150249659976
101.158631253518
101.214051555265
101.175079641932
101.140479331861
101.194351246386
101.138073592829
101.117485517926
101.196251790937
101.242594295926
101.109816406705
101.098831369296
101.128539965948
101.14288320122
101.09396213623
101.095835628772
101.060147474703
101.064299130093
101.133819197966
101.20379948563
101.174642840658
101.107365065626
101.169491314177
101.216108402019
101.166023659832
101.123389805739
100.992545820486
101.013725648881
101.132332743047
101.187644667253
101.116195373477
101.074792964024
101.120793860428
101.158473292546
101.110089056765
101.080537758855
101.111951832848
101.159192689948
101.186009651511
101.203470601054
101.118340078715
101.069601994059
101.097765945213
101.133854476751
101.151844586433
101.180500811673
101.14209131111
101.107350393953
101.120295011796
101.177570990876
101.152698972432
101.152935420298
101.128743633193
101.131069615981
101.190305959727
101.160831048901
101.11431950397
101.173782695716
101.190937365558
101.206022929083
101.119658379051
101.073589694654
101.101044371007
101.102407695051
101.106622543226
101.193686555077
101.223707979085
101.196284460875
101.165077332077
101.114980629392
101.034862779986
101.055561256161
101.045829534937
101.074327473514
101.064732059028
101.004300301875
100.9635688053
100.993526535416
100.947504631142
100.879076324137
100.850702189102
100.886079475723
100.900287963558
100.925833784462
100.893838000727
100.882141152798
100.832979388997
100.766474685113
100.730302898438
100.768600006247
100.799805644454
100.745146390744
100.697864584964
100.75984202479
100.775798873405
100.687242212749
100.757811894185
101.249695407586
101.430476197707
101.065834720297
101.267982005938
101.380298853601
101.281420247991
101.32214527386
101.337635934114
101.338505237022
101.084922983426
100.93841167887
100.902639113211
100.737693968278
100.842263063786
101.048050675158
101.146373301052
101.143812381347
101.054899954654
100.92873705485
101.031527496799
101.293414722391
101.115790575611
100.856304563768
101.027468194872
100.86984195473
100.744925484612
100.798336927994
100.764611297318
100.821680136363
100.726840057692
100.802998842266
100.829002403778
100.910084281683
100.900161652389
100.882559785495
100.821568944629
100.870872880001
100.893535669031
100.896671760463
100.889279454309
100.986403596244
100.988748107379
101.001535767059
101.032810403534
101.124405778442
101.087883746046
101.166955681709
101.288488534668
101.261488631614
101.188043621101
101.330952889089
101.365600224121
101.400796230715
101.360925862014
101.438695917889
101.599753795017
101.759875219462
101.674754037036
101.675565337039
101.789276724697
101.915395112032
101.806808855654
101.873645175378
101.980371864214
102.045443875811
101.965926060095
101.959912229971
101.829294016703
101.88952209399
101.837356881054
101.936888189675
101.983968233882
102.06165327269
102.079640261386
102.136257977871
102.091452606595
102.07923525228
102.184735438576
102.345032662699
102.31016710668
102.416600142439
102.206340892856
102.231956205796
102.548450605471
102.60913223184
102.446504652306
102.484310450802
102.568861296978
102.802770158924
102.626658035499
102.37143320672
102.407174637347
102.736855775302
102.589741555472
102.677968670861
102.621138752901
102.911890321742
103.217224567088
103.001726767571
102.694091527964
102.952867913752
103.371274318702
103.548240923213
103.052956127044
103.08287026566
103.278006360679
103.251079212016
103.173044364875
103.469858573569
103.396533429107
103.409378282583
103.501029991812
103.867204632741
103.901403932722
104.109953166288
103.45775145408
103.144058751723
102.924432893574
102.506595631145
102.082263633361
102.303182894522
102.080458239588
102.06648073453
102.12498474974
102.299997668435
102.114611738194
101.950409740484
101.620571467294
101.597842478279
101.584497285382
101.705487495697
101.595193887896
101.407560513147
101.312800113475
101.444125488335
101.384415101353
101.381003635103
101.242314980068
101.305408002819
101.310572635682
101.297253949148
101.263793261365
101.321808745402
101.362843378101
101.412629655515
101.316822484727
101.379274971029
101.352545891261
101.441650887563
101.462161584745
101.348174649099
101.207070644518
101.340676921483
101.34211388339
101.343703777235
101.196101792025
101.324274134276
101.43490457235
101.536738352069
101.370470212279
101.356027919315
101.380520405505
101.770092413977
101.914939364166
101.838552055325
101.620762877895
101.568269790116
101.690434059576
101.811128116818
101.631245105188
101.724344665301
101.782508208025
101.803975847013
101.966895452214
102.596109527757
103.044541485592
103.072605868963
102.964137348049
102.943521782612
102.756778754988
103.106693556777
103.30862321108
103.433958678089
102.925286902873
102.970207796993
103.148998088772
102.572169831457
101.986839126291
102.402668417253
102.362182372909
102.123779140163
101.705307451436
101.686723043828
101.961850275746
102.46499917792
102.374024728466
102.362276059359
102.120750547314
101.887666090256
101.524182350276
101.598471098056
101.771993396715
101.934352992421
102.06915638433
102.109170273568
101.784206125988
101.992452412329
102.169757629253
102.153422491081
101.927303180828
102.177964837285
102.501891702486
102.826233735818
102.272785465364
102.251634569794
102.242537204944
102.17608579483
101.792792332124
101.399170334299
101.11793428095
101.336452371351
101.350443856579
101.704822626508
101.498270338331
101.20577376713
100.919594400806
100.870192105713
100.593136140479
100.871581490301
100.663492301699
100.553787199512
100.51913208244
100.618398994204
100.611591496274
100.705851470356
100.604440979847
100.591037337884
100.569254554266
100.629614490114
100.592723460173
100.568483440427
100.453406092708
100.315111192855
100.424122908782
100.424629177142
100.456280056754
100.661867983957
100.531007819853
100.482986668898
100.422092798302
100.498814817718
100.459277925163
100.530211438399
100.508163004749
100.545201483446
100.366063903429
100.413665589669
100.361096906667
100.402933296791
100.314767443515
100.274859993014
100.342129970553
100.38090070475
100.38319991039
100.50294379843
100.508903068537
100.517406605189
100.477582054517
100.359675467124
100.182563805931
100.103561339592
99.9565152416199
100.147492600342
100.19334482937
100.26120200792
100.223497856365
100.287188080702
100.245516984731
100.314014765393
100.261555711005
100.248713941371
100.080692165958
99.7749019642026
99.6736571465182
99.4823587084968
99.7437022014024
99.9529855513704
99.8820138072922
99.9311337310595
99.8305479354705
99.6372012005427
99.4467408742082
99.154077517152
99.3382091427845
99.3304917196265
99.532904743921
99.6506024096547
99.5682848591277
99.5902278807455
99.5959755210364
99.5695172558268
99.4609458144953
99.4012494070925
99.4932701222312
99.5774374370324
99.5436366957242
99.3458903567543
99.1686974062982
99.2766403767626
99.2716893137404
99.1694401534584
99.1501974499385
98.9767244215598
99.1708080344372
99.2772562948015
99.3206417584045
99.1016363262832
99.1654990163902
99.0231123562589
99.18081193329
98.9773126901602
98.7864761449231
98.6183166076353
98.2659979337108
98.5709533804774
98.5688479818316
98.6316071164103
98.4693838613821
98.1541690582567
97.8693415099403
97.8585549902505
97.4182877002712
97.2993895570293
96.5946456530936
95.6871642357263
95.0020699640031
94.3040061347878
93.4358514901983
92.2287395143228
90.9622773326873
88.9696059678275
87.333755060767
86.0712859361062
83.0864163424208
81.3809970491025
79.5746950051257
77.9168108410354
76.1567335724171
74.4805810131907
72.5186044412623
71.0716935472519
69.6580761373793
68.3243626576771
67.3910194934975
66.5600406587645
66.11174813537
65.7747355572156
66.1182134237084
67.4329364530405
67.8338095214326
68.9738544976167
71.4800229855234
73.1338388830355
75.4748974785176
77.8619080464397
78.9838138433659
79.6123851480981
80.4141629233615
80.225052501659
80.8679877098235
82.8052072074522
84.2902881823416
84.169936126514
84.17800002859
84.6717355678163
85.4389692624005
85.516371366911
85.8841972347842
87.1494044499447
87.735158827604
87.6249143683297
87.9876991933729
88.8538534140888
89.3538769124582
88.7039444326284
87.6846147863779
88.4348592630429
90.2911663672644
90.2529748918971
89.5556125470517
90.3363343184726
91.2984029577842
91.5297826735356
91.2356492579071
90.6659663337223
90.6040302389239
91.4652231167676
92.306335380208
92.1895783036744
92.1061807566619
92.0337809213821
92.2045420861026
92.3563338757973
92.6322948036221
92.5540998378823
92.2622028751951
92.1329105588016
92.5040113658291
92.4544865746003
92.3296640103621
92.5601867731369
92.7972116990983
92.9989369738808
93.1099003089494
93.3460841313572
93.4669066490697
93.5405040532733
93.551927559776
93.6768422880559
93.7426836808217
93.8368563548325
93.8021053025936
93.8365703188909
93.5550401276034
93.1260425238547
92.1101202318528
91.1719557670005
90.8440512451877
91.694861230019
92.3412000100386
92.5253117167288
92.8515632101229
93.6499635847838
94.1605133503807
94.110144709059
93.8834491971762
93.1768915105386
93.149152869871
94.3085462567281
94.6316974150935
94.7318113676132
95.0338724888887
94.9492586062064
95.1027245377418
94.4880758214811
94.1120467890013
93.9816539909125
94.5454215318283
95.0501414235504
95.4393681025457
95.1944417012548
95.2669364506468
95.4220516749345
95.2769278567103
95.1994054460786
94.878937027427
95.0307385856215
94.8228372081535
95.2779587188796
95.2542958411008
95.3870581356856
95.7584425650945
95.3741352268361
94.6200675568474
93.3502205993019
92.2703931813876
92.5952926561237
93.2909996618959
94.0572942964184
94.7770030601514
95.6474821605867
96.3118443858641
96.5445210585051
96.0960253349561
95.9788817652867
96.4463102157371
96.6036055964542
96.6769809930132
96.4808606525108
96.1573929306063
95.7718094670429
94.9174477826681
94.4684087385495
93.9468626951571
93.7213490625838
93.3216434787217
92.7264985112897
92.2247611422103
91.8987748915751
91.4578404020944
90.4696446619228
89.6485077753526
89.3095358030259
89.4604418790427
89.0085905465929
88.9915199991677
89.1537127160534
89.8756827259453
90.5266837606405
91.087494304734
91.3016835880704
91.4504227889736
91.5823157516789
92.4624979349145
93.2718614425491
93.6757815748219
94.2159260928103
94.6093472930529
94.8261123444564
94.7091317394621
94.7911787454267
94.5739014110501
93.7694211601125
93.344476913829
92.1175179008065
89.8732097458255
86.8694849432591
84.4533170329127
83.5019645704807
84.410998556635
86.2455684896599
87.7417644268028
88.6721060171219
89.4387666442987
90.1134008264845
90.6774274399882
91.276557920119
91.369929743298
91.3177000621139
91.4881917827857
91.9639208666962
92.0699640899423
91.9517414535643
91.6424602233981
91.1031346072031
90.5246705245614
90.1257535417101
90.1407140270624
90.1508898988847
90.4413874735562
91.0764208938457
91.7806929530232
92.5849822933714
93.5543827693451
94.1567046578462
94.4767883203107
94.6502774640263
94.8082502558247
94.8673248380106
94.8361971888354
94.7241694931215
94.5188953550117
94.0981605470626
93.5477175997316
92.9553044204128
92.9129422561336
93.3826567687106
93.9700671132186
94.4264844806196
94.6965111507928
94.8027588479398
94.7363064654674
94.4841310078241
94.0777622583228
93.592817310598
93.092206366887
92.655054796227
92.3014252997371
91.9550623231177
91.6645091913702
91.3103597596517
90.7994448639188
90.2508544909372
89.6922137385253
89.0863701275031
88.3895620187258
87.4330474202267
86.1946661546726
84.8228952951628
83.5233917689711
82.3310971441143
81.2655165998442
80.2811720626876
79.3341074416073
78.3316733020957
77.288282114369
76.2196253285495
75.1626643776397
74.1140194050087
73.0895511867388
72.076531491698
71.0638855753151
70.0061037077401
68.8545759383679
67.6342356690503
66.4103219741388
65.2848802936516
64.4591105031189
64.0073335165825
63.7973004792405
63.6434122060342
63.3808393270329
62.9225876792503
62.2660664262528
61.4446250613233
60.5588765852599
59.6241791744353
58.7064166126231
57.9009974038074
57.3022136088123
56.9759828894111
56.9732739433201
57.3188728465185
58.0303011718187
59.0496022689493
60.3467991537815
61.8046530182401
63.2473712655268
64.5853921764419
65.937041792811
67.3735863812234
68.8384837484265
70.2622467474184
71.6529229806539
72.9697878305423
74.2048540833339
75.3765702233336
76.5031417882392
77.5739410908574
78.5900364050178
79.5664835244582
80.5284271609544
81.4674008413218
82.4081816735933
83.3262953657075
84.2035100134793
84.9932435149659
85.6405231343973
86.0696045161771
86.2329773167799
86.0965039971204
85.7366108479948
85.2892209790523
84.9510517485941
84.9204025427133
85.3589176496288
86.2111142957359
87.1884403871489
88.0238948079591
88.6590795915634
89.106651510146
89.3693908527903
89.4310230678795
89.3283949729576
89.0936684004815
88.777483850552
88.3789844498569
87.8788346889403
87.2350244171191
86.4415538886997
85.5394839795378
84.5884689186272
83.6351921998656
82.6915680099377
81.7328107722636
80.7447446974188
79.6544631710476
78.4506794098628
77.0560087230029
75.4233631694897
73.6301000273013
71.7981009692689
70.0674082293701
68.6402519485342
67.6878796527366
67.3940650298641
67.7637346745753
68.4168998695069
68.6421217652198
67.985429642943
66.5720310935389
64.7909501181733
62.9541385704794
61.2532612886804
59.7296759387364
58.4574653986538
57.4898661726506
56.8384186802472
56.4493766850933
56.2472715889576
56.143268459761
56.0896231483899
56.1005422964462
56.3093192581108
56.8162980415591
57.6831241383498
58.8427538286919
60.1637096964337
61.5614093008404
62.9454892260578
64.2307721471916
65.4906043983481
66.7376987611641
67.9380612581765
69.0537032025301
70.0627497750825
70.9047993979705
71.5427249390064
71.93465596057
72.0658759024404
71.9541315744932
71.7027587363333
71.4031616827801
71.1580567241027
71.0612818247832
71.1707059039824
71.4753112305538
71.9370596059558
72.4994424009491
73.1241468925841
73.7735259477251
74.4980135026813
75.2659494002859
75.7161857872832
74.9704477642217
72.1320138598263
67.4035831863825
62.5283747704518
59.6631395973335
59.8331355334611
62.0703306989969
64.709642362557
67.0451378434999
69.073604870647
70.7952862916243
72.2329596434332
73.4520167774375
74.5119700693607
75.4164952774146
76.1879431304171
76.8139520151905
77.3020886230662
77.6498775754531
77.8743210102576
78.0300553040581
78.2002411979582
78.337322727525
78.3673891774725
78.2644674052965
78.0239753165528
77.6811378918345
77.339892792371
77.0562134649268
76.9053950222046
76.8953639000308
76.9677592447259
76.9905937255853
76.8950130947534
76.606704711748
76.1887749784985
75.945493883529
76.0448557118142
76.3345972322899
76.6585348430085
77.0023831803112
77.4611762420638
78.0531784243307
78.7366723319912
79.4101868379416
80.0178417970991
80.5599155455127
81.0353809383057
81.4561311315861
81.8286342000444
82.1049331210622
82.3716999052372
82.6478955511872
82.9303222518957
83.2652456853666
83.6492929904515
84.03977306655
84.3890704971084
84.6263158777678
84.8069837140088
84.9034584036755
84.8783722762255
84.6871739386879
84.2401064703273
83.5900306933962
82.9568538886748
82.5007736937747
82.2373284591647
82.1209252767449
82.1422930007736
82.2155229603939
82.2702276254744
82.309857481022
82.3287568039955
82.2191727696609
81.8099004915534
80.8893321025267
79.3797346618368
77.3111903147564
74.9729395312539
72.8995766253537
71.7451903697466
71.9001276525677
73.1105266930099
74.7352207465486
76.3274757298616
77.6372837829426
78.648457239089
79.3942041363971
79.8872072625572
80.1524146555658
80.310382601136
80.4094734426445
80.4113959874639
80.3972839603685
80.4217625797549
80.3841452159313
80.4140078843985
80.5794230187288
80.8055889215836
81.0418782161339
81.3663058817834
81.6549377350805
81.8739944138719
82.105721881324
82.2976631255676
82.3134233518681
82.2738232358048
82.3054344427105
82.3267429493168
82.2909472324874
82.2634250330647
82.2376142799571
82.2281026325496
82.146773986555
82.0006091611659
81.8719338427777
81.8709558895454
82.0241491879838
82.3114268678874
82.5588378058032
82.1715346110951
80.8711016371436
79.6837122148953
79.630042163031
80.6212634123033
81.9929465687978
83.3911858931461
84.6490667747733
85.615710746546
86.3560710873868
86.9674982970122
87.4367110903044
87.8078617582953
88.1709186324425
88.6102963743821
89.2301900394148
89.9882869604743
90.6068298740257
91.0699788255013
91.5652885146357
91.9967404105819
92.2369597632453
92.5895462146797
93.0013819571877
93.1837916823137
93.1967565662369
93.2279161381538
93.1207405258167
92.6730695237035
91.6336219064198
89.7568499218055
86.4568467835498
81.5050599848363
75.7277327491783
70.1290366381378
64.7577944819633
59.3069054218223
53.7662909131084
48.6065505377593
44.8005702595323
43.3291872296575
44.0202623312138
46.4292687531655
49.9815043592876
53.7723489647514
57.0270453115106
59.577554228
61.2549971876471
62.406794819144
63.3577489178411
64.4515311983248
65.7897386556578
67.3186916768932
68.8478641531341
70.1422493265256
71.1449887882543
72.0573792336441
72.7872706189355
73.4078898644502
74.0474150019132
74.6140317482509
74.8775450943655
74.9348080163264
74.8647236315286
75.2052881252465
75.5466700819692
76.2062531834742
77.0667956245736
77.4348816916799
77.3746093910768
78.7287199168943
79.080307187968
78.6459463338392
78.9710470834525
79.2771097997868
79.4763695596542
79.5564910423225
79.8635684140696
80.0962912918346
80.084516876432
