1798
3999.43349933624
650.420452594757
1
128
4
104.679098197462
104.66414553086
104.596918929353
104.565445094846
104.535172882058
104.50315712943
104.566202476413
104.615550151971
104.728698988618
104.682704053604
104.625885322827
104.493951511957
104.551402735004
104.569154261133
104.564320880087
104.511994194285
104.503977816367
104.495716097177
104.636665357224
104.529451977434
104.399805496186
104.413806502086
104.471001648371
104.448254808443
104.479489226268
104.380547439799
104.377111403638
104.258838103552
104.300889952119
104.344310630068
104.315982889116
104.416017039069
104.503658678315
104.454049798472
104.372647554673
104.023364113989
104.176195405787
104.188177567752
104.215811026915
104.13932385178
104.169470267286
104.205144071138
104.167308423577
104.210944039783
104.016941338782
104.230392082385
104.434554240677
104.509404954794
104.266254568219
104.222312578217
103.934638942626
103.251589291695
103.475923828097
103.590671573446
103.898781448625
103.963628001692
104.08879328713
104.129385486726
103.815019189567
104.485891630117
104.217851746418
103.57278051374
103.835720527276
103.834921376081
103.762983597173
104.04413603356
103.838856100845
103.595206209465
104.270692292987
103.26957556958
103.93043178855
103.799602270436
103.833716597577
103.835007817262
103.916570825266
103.628076460573
104.021985034297
104.187999400955
103.256850783905
103.585758101291
103.783462174743
104.062030759291
104.234508023281
103.884562467019
103.78356783885
103.755046346416
103.64351347106
103.482201370816
103.747603749412
103.98753311375
103.916950921284
104.332633612646
103.858402107252
103.798662925943
104.318696288777
103.313697795234
103.412345664241
103.922660519817
103.427079441242
104.088986192509
103.900102714305
104.210044736861
104.23376754779
103.412915702044
103.940864507715
103.987730458438
103.273611069502
103.699847755045
103.553504076051
103.841038268673
104.029855491068
104.101226522035
104.045448443283
104.156204646415
104.095431582283
103.913166538651
104.117353698788
103.969775562654
103.906860833943
104.258542436816
104.123623633173
104.324819418455
104.026608375955
103.846637034604
104.140044370346
103.764390530465
104.100831396384
104.088514910651
103.79177087196
103.642014602368
103.627274769864
103.819565587232
103.624398819374
103.308601685964
102.497310028235
104.06676450392
103.179611799424
103.429801405339
103.381554149882
103.509576225234
102.99752008638
102.659572337039
103.226390664184
103.148414915585
103.579997289877
103.872450750928
103.609881261727
103.549989282751
103.324343707222
103.61483271878
103.710863947233
103.658707795514
103.881569349351
103.833408907757
103.35890699554
103.417311408746
103.689844670013
103.90646314659
104.083683184768
103.906387532681
103.946246840356
104.116398068838
104.024105882941
104.062651503245
103.601162429015
103.786721896778
103.502230768913
103.538396060252
103.76660214398
103.819523415423
103.986124583306
103.536384234839
103.885931192745
102.7691755864
103.072050709052
103.440646289978
103.142338024014
103.349825086472
103.559071539866
103.706109572493
103.863835293009
103.683877611439
103.860648722263
103.819872039026
103.384289943732
103.698190088777
103.246722767763
102.694489080478
102.343899567485
102.667121943866
103.189087888067
103.425092198084
103.699342269411
103.450250399661
103.570593039041
103.450310132652
103.155869982233
103.49797286655
102.703268433233
102.944947919519
103.159778793101
103.459569165384
103.480264093333
102.955596266545
102.564549578313
102.857492056472
102.952367660886
103.027830351602
103.085696814214
102.858687400032
102.911023768048
103.078380621399
103.344901619757
103.413813761738
103.251893022874
103.217298215161
103.068123620094
102.996831525758
103.077883345467
103.061365796832
102.71605830064
102.851683674885
102.97779454995
103.0410485005
103.117030553566
103.126000582163
103.005891763093
103.084087024175
103.27088259255
103.363018883909
103.205165836312
102.633954641493
102.430000938313
102.655947294669
102.829721045061
102.865163498328
102.852271686228
102.829391017012
102.760949120308
102.623657730531
102.73636147515
102.80361734978
102.555715851392
102.495412516163
102.597360662415
102.679071625238
102.658090351882
102.719722471904
102.619229526338
102.529663409029
102.469236238107
102.629320149944
102.620424281094
102.510228195379
102.410514388219
102.485677311727
102.568741920891
102.437362699927
102.464857104155
102.73900566652
102.773670358834
102.692922297484
102.543919208888
102.354584203803
102.17440261864
102.207816437943
102.367741277349
102.388754089809
102.366134525365
102.45221006129
102.4237703837
102.412925199067
102.391221930733
102.280087825857
102.143383531417
102.17273764289
102.175333697899
102.105137476471
102.080665655561
102.15733406668
102.231518460345
102.227420218436
102.02922001325
101.841877806624
101.846757860235
102.088461843264
102.274079199434
102.204844044403
102.138076627779
101.977970140775
101.735492582538
101.690743803477
101.775374877426
101.841162987695
101.842423846768
101.804516126999
101.704773443787
101.662779231354
101.59809987951
101.618932004968
101.364061476881
101.205177429161
101.259295055993
101.363686540513
101.36543159356
101.461193058865
101.587341692975
101.62265198494
101.396422116726
101.236419713951
101.254802569321
101.400804502992
101.435575940538
101.34406918704
101.332467555557
101.417959503691
101.524835190263
101.570282000404
101.257023509869
101.083413395205
101.203579025682
101.349348925256
101.275649259201
101.369049471996
101.327310919127
101.247307688282
101.366858127868
101.446086840099
101.385969206736
101.365680765766
101.357643364441
101.313832179176
101.291728468654
101.3434931005
101.225170375975
101.206878606695
101.293938726254
101.291887493094
101.215110960373
101.262970674316
101.2448571813
101.186915948104
101.105809410371
101.106999203465
101.129419423175
101.044339860762
100.995142129974
101.066290770506
101.119558340921
101.173390748661
101.136999829559
101.087468573605
100.997011824661
100.961815832174
100.973033974008
100.975020930524
101.036949988361
101.124701982533
100.98961173133
100.85881609179
100.917355746561
100.980867412731
100.967058629504
100.973244298194
100.955346123928
100.951955650354
101.0260054028
101.039335568255
100.968939101868
100.950390188383
100.933333802217
100.985202931594
101.004100838088
101.024767478238
100.923236337559
100.879878319382
100.893984362593
100.869875010266
100.860565355049
100.900450371719
100.810860014921
100.755225375812
100.784435206168
100.751420289767
100.786062609413
100.930096625187
100.897668996029
100.748163812375
100.673780887906
100.764052681645
100.870363562385
100.887624944163
100.803888682584
100.73108540901
100.816941219744
100.949251123292
100.957834647958
100.916202449905
100.883067073459
100.896737214478
100.972899538756
100.941168863635
100.885374578375
101.007501351342
100.984172567254
100.951893791541
100.997963063411
100.987914531102
100.885909090533
100.949005285535
100.968801627595
100.912778446831
100.902660176961
100.897014161573
100.924650568477
101.029460170705
101.041972959558
100.945476738381
100.905223519876
100.951095743118
100.919045848304
100.961659329084
100.995874135361
101.024588959271
101.032822234351
101.012819801021
100.930460886913
100.903287752086
100.959265005963
101.009174501406
101.075372041328
101.091148505396
101.074977491787
101.124392955687
101.166381020609
101.170797170653
101.15337004475
101.135385919233
101.111882444159
101.156447114957
101.16262753011
101.161722870844
101.106674910009
101.126325819375
101.146639394918
101.092961903337
101.102455270742
101.227122990136
101.340417746529
101.320281217853
101.280775763433
101.276049350055
101.24303599607
101.246969710922
101.235280534198
101.258609921582
101.221325043198
101.232157507419
101.227226464095
101.174306410153
101.187402710977
101.300856911945
101.3149075988
101.275416637898
101.329816248039
101.341685006345
101.204490164358
101.183478424404
101.235924808567
101.15693818329
101.109882353288
101.212491997864
101.27611158579
101.275068673858
101.274317014759
101.225557037919
101.168711657323
101.22323742914
101.226263432566
101.181352920177
101.115875695028
101.112939472358
101.122115383115
101.144605067734
101.137175281597
101.160063003479
101.164531723805
101.129152374967
101.053520312534
101.023533117473
101.050937193124
101.086708488253
101.057928956497
100.966049959868
101.004462061448
101.073130395043
101.030208586908
100.949030912607
100.867284554324
100.859040461261
100.852113158957
100.901894974658
101.038798410898
101.047866721966
100.883934417293
100.834642243403
100.88508408285
100.953839168668
100.971573888535
100.989786366422
101.031876034319
101.109800861158
101.188058998255
101.260247752455
101.206241013611
101.26099212289
101.366130688831
101.325529660323
101.191637012712
101.259691731504
101.385013530542
101.301303935704
101.174500232082
101.22114574463
101.246869509724
101.19307859965
101.146600321772
101.132111725986
101.066760148237
100.950729837689
100.884323348675
100.779123247546
100.667510007053
100.668219301498
100.676685287124
100.599093312602
100.4920013998
100.431659441621
100.378181509636
100.361192998635
100.306770603619
100.188593694161
100.037890700703
99.9062994278288
99.7661681222952
99.6236781141761
99.4954911581888
99.3072303359646
99.047663860961
98.8333474379038
98.6217068477561
98.3242358484261
97.931287080422
97.5312381583889
97.1342073611676
96.7817350590105
96.4611307200574
96.2045385949469
95.8843792421615
95.624702047145
95.4634332982982
95.2610911502184
95.1267395759156
95.0583964360813
94.9341847552425
94.7968288175819
94.5409276137837
94.2721491536736
93.9374969259609
93.5817339042162
93.1859445479053
92.6347127656382
91.9808818046916
91.3877503616802
90.8440047938991
90.4098913755988
90.1012865163821
89.9504183686463
89.919379709668
90.1171515529354
90.4661787793979
90.9258315552178
91.518625338809
92.1385246121538
92.6474494212909
93.1663325707342
93.6320394427775
93.9853043378605
94.3372137595638
94.6353640647604
94.8070851148257
94.9695310924082
95.1478359129211
95.2928479801305
95.4438671538254
95.6529730456918
95.8575620491155
96.0580108300134
96.3140595548037
96.5509076428317
96.6920188917383
96.8768086080358
96.982657332339
96.8694442619951
96.7071030460834
96.6654519737772
96.6146550165113
96.49725107088
96.3131586333044
96.0377909743969
95.6739729158145
95.1578287753349
94.5867279798145
94.024524854883
93.5289360613172
93.3081208942682
93.4442114372986
93.9094994793259
94.576702867253
95.351745658943
96.1512289304944
96.8832766638393
97.4872948088724
97.9969497453245
98.3661831052179
98.6126869179435
98.8348456436334
99.037944087232
99.2181677190739
99.395324456067
99.5103871991686
99.585725876805
99.6785386163144
99.7670712346242
99.8438795308099
99.9325147725886
99.977448708503
100.012413505833
100.047792311822
100.100767235737
100.178334930774
100.207872031516
100.210861860966
100.224719173801
100.251512501804
100.327017839213
100.372592419039
100.391769349857
100.417905036397
100.446821009328
100.460710421544
100.493118805648
100.515058757032
100.554235909568
100.623404769756
100.638546442799
100.603858083466
100.656300522266
100.700138414314
100.682008702823
100.674128806417
100.713318415168
100.742751872607
100.757637173266
100.728123472133
100.701353132703
100.716285868456
100.781289196906
100.755513924036
100.70419274172
100.732557986588
100.762749314759
100.762846676254
100.80867896321
100.857577970831
100.841006871584
100.780832000365
100.795794372872
100.839867299949
100.867146975244
100.902951573834
100.960396951793
100.937755065121
100.866237730458
100.842236845335
100.839480260071
100.88347895034
100.929187883619
100.928422602893
100.93309443172
100.951333178904
100.968752076985
100.971626613034
101.005714852013
100.979290939064
100.985543825593
101.033969798547
101.025356546144
101.021046096761
101.027858635845
101.019270185329
101.024852381097
101.025881252123
101.021000229096
101.004310285044
100.985749991301
101.001575476635
101.043025947841
101.050475246137
101.001870640592
100.98961610041
100.97335141333
100.946358576999
101.001087253031
101.016559660156
100.950350566845
100.947817245179
100.997131259852
100.987198449709
100.980461970646
100.971456551659
101.039718472578
101.039608810528
101.000306975638
101.008484179427
101.061409470335
101.06387278321
101.048101683847
100.995719923728
101.02798358762
101.085696654721
101.134191551502
101.143547568532
101.104207363601
101.112765614024
101.130076577614
101.172837461635
101.189691261824
101.132198383366
101.1604420958
101.178015631298
101.23140332163
101.310702873239
101.302278104975
101.227931373168
101.24852537582
101.283387448104
101.273437991094
101.310737202907
101.365109725481
101.368756160743
101.39884720599
101.417316646559
101.403348890747
101.398203286257
101.432782635155
101.439141884693
101.422905025561
101.383611298051
101.382329631169
101.362840565795
101.303484562774
101.293030728904
101.371448035423
101.55002381837
101.611600654165
101.45143740246
101.383095962468
101.470276645454
101.488378880728
101.427036812762
101.482217771903
101.597104848954
101.549711514916
101.464450051412
101.568619925991
101.555604172433
101.534094472007
101.557847886613
101.48589404788
101.44881427914
101.552676916754
101.601385823778
101.605716078701
101.57613916813
101.526875556281
101.439048222998
101.489493690549
101.456696703747
101.487546407854
101.488020129835
101.421615647923
101.441246025736
101.521230675477
101.523898362057
101.582106110249
101.583875428547
101.521704080336
101.489995948656
101.51710530238
101.460362488579
101.452441079608
101.478799540375
101.551822572686
101.529694422519
101.505731671878
101.442450681305
101.492634880842
101.520883066682
101.521686719826
101.480048776612
101.481724709147
101.511936706251
101.500497269513
101.52508889601
101.61042990513
101.578724253486
101.476979708144
101.457303229114
101.498189903287
101.466734564473
101.45422190713
101.40738222993
101.382379945879
101.46936827816
101.600171208711
101.526469543259
101.53769423737
101.510383915277
101.457040609667
101.532444495183
101.519852373048
101.425065649967
101.503841545662
101.507448982366
101.482804881703
101.482968450891
101.464977937692
101.414752305069
101.399429843078
101.415002784491
101.467777991568
101.444232013234
101.477390671565
101.488114751838
101.417354658761
101.332801651078
101.354604451397
101.36884576864
101.356626203845
101.38969423388
101.423625296948
101.437925999334
101.399919214284
101.282010410239
101.213597873326
101.168761635495
101.201710506264
101.257203235938
101.256619369685
101.22711875343
101.249125758512
101.191445718098
101.142134212849
101.170617887236
101.170607872167
101.122076555814
101.076816997856
101.064043416671
101.077661882573
101.061691912743
100.970513008157
101.041479223156
101.571213922457
101.817739326536
101.322434308025
101.426465377342
101.638994912155
101.652038099782
101.6283691351
101.561189993244
101.636559120557
101.457164732856
101.295634898705
101.28300790582
101.114893901188
101.184675281569
101.408813448226
101.502311310162
101.522675379361
101.462968207746
101.274736144449
101.318315605603
101.544690957662
101.40644064074
101.19383982901
101.326355800828
101.154725183126
101.088202780571
101.157936385421
101.049579618359
101.10859495938
101.065650436349
101.035993039947
101.067635667117
101.307271778508
101.329373478246
101.262122459663
101.16676292124
101.166530351827
101.149435694984
101.232715042182
101.254014321233
101.333252607361
101.34655842142
101.333411054266
101.333008315658
101.461461861293
101.502020665754
101.553116223699
101.53752777505
101.501316726306
101.480075816423
101.66180886587
101.728964880625
101.770668299095
101.766837849651
101.871536895092
101.911306427927
102.028094823861
102.019303729792
102.064651946083
102.023428399121
102.015234119242
101.978308706533
102.082782956122
102.189991882837
102.29250406303
102.189873803045
102.156291560107
102.104320904934
102.215543928668
102.218942645357
102.281701029496
102.250147622531
102.301711884933
102.24898416327
102.290805541802
102.429536648824
102.676273394522
102.590480603861
102.565874077704
102.573431821637
102.784797374512
102.519578550447
102.35448034256
102.529101204017
102.747300595946
102.71378826081
102.844984799154
102.808988866454
102.770489573118
102.592498991462
102.63496738066
102.775396267461
103.148590210417
103.103311365793
103.136283931438
102.931922938371
103.005709381933
103.013383492948
103.031959913817
103.229260484983
103.604517588265
103.75566432565
103.405113345314
102.93097592629
103.449858008225
103.598067934272
103.604523375031
103.629447523487
103.778186641459
103.781300201298
103.832624509683
103.718959195596
103.984511287331
103.969518451619
104.161707424239
103.411107900875
103.231976628646
103.218983695251
102.789138793599
102.470948321251
102.932116614121
102.782178542634
102.424864929469
102.417959983217
102.660629720967
102.525737371596
102.226017382265
101.990070559105
102.045342397521
101.964888030913
101.937358764149
101.784935043005
101.698778503151
101.731819029591
101.764533127282
101.625691961339
101.684303424544
101.525433617785
101.505848231887
101.547776901913
101.583606291383
101.526553023131
101.665152804651
101.750708149572
101.742645948732
101.622714351706
101.67182659238
101.666439427218
101.665828290708
101.677502288032
101.66716003833
101.538518663661
101.612254240421
101.487119011962
101.534549855675
101.502062591708
101.623784884928
101.774594065143
101.903081975487
101.846662286115
101.812830327461
101.595876515896
101.845820891862
102.050719205426
102.080652742618
101.84128179359
101.77501292044
101.917210730477
102.109323782173
102.117753700166
102.238239488965
102.142167789197
102.029470843216
102.363968567745
103.120353483519
103.155107081032
103.22878091036
103.326221869517
103.369547891605
103.18338586812
103.136709720743
103.00674977972
103.241980919082
102.983528295968
103.17863458304
103.331114978598
102.797838074063
102.35081592179
102.665045774397
102.525742013864
102.423490755616
102.358455472325
102.487970006985
102.464909082262
102.61976137347
102.36014920943
102.623049568893
102.645028059763
102.39156983426
102.133717576528
102.128207707744
102.036911113189
102.221746971595
102.471796856535
102.475423849437
102.167540026208
102.407975829902
102.424073995838
102.253330112814
102.168771010627
102.512028182382
102.743340785649
102.897000896305
102.606419682387
102.763298045345
102.469067083041
102.337270027201
101.901370181042
101.680154976202
101.735919187946
101.953419215455
101.618916764362
101.729166779701
101.482219355861
101.217037545457
101.06458168312
101.171635247876
100.981861499579
101.158569037405
100.973420449413
100.924134352087
100.799571090045
100.865572208423
100.876497915817
101.048512294193
100.97529073448
100.898715831149
100.908840382292
100.967565056588
100.825848109993
100.712606748024
100.772894070623
100.726365407877
100.73428710763
100.660016057946
100.645571921982
100.869435856114
100.763759621977
100.720146507028
100.629900963665
100.67473162551
100.688055047553
100.875839436371
100.883483657452
100.857406409518
100.637134417457
100.726398555793
100.689501450725
100.747405145446
100.562359800608
100.466300349602
100.607640944964
100.697381691925
100.701736045669
100.744747839073
100.683855946895
100.720927065835
100.743308738832
100.669218780532
100.445749809834
100.223154888052
100.075680597309
100.396024690932
100.475438178735
100.56184421208
100.528516488465
100.522475148238
100.470328928369
100.581905943806
100.448844899834
100.410746744965
100.284233047968
99.9908213260046
99.9355584645538
99.7635395543831
99.9590812587438
100.066329144493
100.008141886429
100.113593121997
100.03103186026
99.8395722696101
99.6664455049048
99.3961015867372
99.5581212057501
99.528884681144
99.7505923377081
99.8508860078871
99.8029355905998
99.8588387688697
99.8412588368915
99.782263473051
99.6595750936025
99.5620012699659
99.6521752104133
99.7554241921325
99.7508511481982
99.5891183184225
99.3910688936277
99.4821543310945
99.4646670521133
99.3530381892005
99.3604946175166
99.1998512369718
99.4305510291948
99.500453847901
99.4756749135474
99.2165170690883
99.2882885921144
99.1169109433862
99.2839647946246
99.0692794384423
98.8681573408153
98.689872507696
98.3621810978147
98.7155693467295
98.7026053208704
98.7422999630214
98.5766021082547
98.2602407618613
97.9657109013653
97.92701055544
97.4401249535978
97.2884343052019
96.5346357199938
95.5520505154502
94.8009105333052
94.0523930215442
93.0470517332716
91.6163132556915
90.1377992605862
88.03988147406
86.201240954348
84.5104947706712
81.4874755739295
79.9650925032672
78.2804286950498
76.7361649035769
75.0261607733693
73.4280394136291
71.5963535058521
70.1102965895993
68.3971855745814
66.9935021777648
66.4162020583307
66.053152135469
65.9991040251623
65.9921657903367
66.5547824618086
67.9598936106266
68.4507709677452
69.8881388971254
72.1214203509798
73.5252055373511
75.8028523843366
77.997572266281
79.0211346855027
79.6773861363501
80.4014282142957
80.1576318809726
80.9285339521958
82.8118097721074
84.3265508573554
84.2767405562428
84.3797237375269
84.9478190265536
85.6870038142189
85.7810722866312
86.2110661868481
87.4840624466134
88.1092855056784
88.1198309666242
88.5344607046563
89.3850860539082
89.8704899467639
89.1977676876031
88.2696660062901
89.1145519299204
90.8445175124208
90.7899002860061
90.2013597729757
91.0494329308065
91.9571242462714
92.1782351380221
91.9271999771281
91.388821763728
91.3402732741052
92.1599921925061
92.9930728811962
92.9075641148196
92.857081353398
92.7829888933499
92.9790562103187
93.0884121163688
93.2985846813569
93.1626045196784
92.8167329651495
92.6798625006286
93.0777935255556
93.107285403213
93.0934798850227
93.3309830695506
93.5773844790208
93.8271631204282
93.9355362815876
94.1879673627864
94.3285549123278
94.4085905174843
94.3966247592971
94.5025872863356
94.5467443869446
94.6227101958192
94.5523929137428
94.4917950633342
94.0725231217316
93.587193269252
92.5932173803647
91.7563572948441
91.5164339921415
92.4131646718594
93.1272150431408
93.3876082348512
93.6760667336884
94.4352102129467
94.9248471347069
94.8257178133251
94.5726208040839
93.8237242058066
93.739561082023
94.9295002539938
95.2607799042851
95.413400086864
95.7480575997803
95.6347135356031
95.7745943535026
95.0929431357924
94.6478743877413
94.422134879373
95.0429182762862
95.6155494903951
96.0080573151879
95.7054835511115
95.7760509195071
95.9495478854985
95.8040946772851
95.6894064215093
95.29660222186
95.4413590767018
95.2214990388091
95.6811623666816
95.601315918682
95.7178979077638
96.0708175455005
95.5834421205045
94.6485419178873
93.0343568584727
91.9377293026926
92.6647889854653
93.6827812826357
94.6329469832436
95.3727494662027
96.1552489938519
96.7665805976033
96.9726957152578
96.4480424071476
96.2827788990475
96.7509224616641
96.9146544403607
96.9895275726844
96.7463610923969
96.3730598148785
95.9611063329523
95.0620094284047
94.5630484048329
94.0308697745054
93.9648246060198
93.6777952224468
93.0713979132451
92.4899111560648
92.1423607179471
91.6948031443495
90.575576695183
89.485525487893
89.1447813297572
89.4729329627574
89.1418039617905
89.2551906184055
89.4621940623555
90.1889658913538
90.8828890410222
91.5135935042166
91.7498248969574
91.9288975788212
92.0914181280486
93.0024761967655
93.821558901925
94.2252209086737
94.7467819596857
95.0814069328778
95.2341611615995
95.0426174976733
95.0335427989181
94.6072620693434
93.567233540256
93.0040542815368
91.5704852979298
89.139246768699
86.1354577230364
83.9901018032425
83.427252656722
84.6533504202046
86.6253062491354
88.1776167935796
89.0788445700081
89.7585648595716
90.3794574465698
90.9051369577182
91.4910630871644
91.5764044974017
91.5116761721884
91.6566902574822
92.1310807995541
92.2133505743031
92.0563213833329
91.7030832610831
91.1195727680716
90.5083506586717
90.125165604653
90.2202758294282
90.3259318108321
90.7287926825178
91.4780220861009
92.2536931687288
93.0640191732662
94.0111820160655
94.5759535017385
94.8670959879263
94.9873366152925
95.0795119451573
95.0982422882728
95.0264584890432
94.8630893834496
94.6227575860666
94.170153331494
93.587197929498
92.9770599564068
92.9815811376465
93.5569204963692
94.2283613185505
94.6999794712343
94.9393692630608
94.9699091591501
94.8159839046416
94.5138620869793
94.0792172223223
93.5497205912507
93.0008604667576
92.5502092968057
92.2078926076109
91.8488507002333
91.5186874992635
91.1150767689219
90.553348497904
89.9668542971641
89.3814284120705
88.7156463005588
87.9160489425329
86.8736987573906
85.5794572490545
84.1756754866007
82.8710461052938
81.6906814593533
80.6348593120798
79.6349347357948
78.6752837727208
77.6701933701141
76.6156912383372
75.5151990327997
74.4407204702091
73.4030599696795
72.3662796382785
71.3323628637397
70.335011190132
69.3045586879837
68.1826757647775
67.0109260211607
65.8751959706686
64.8510824244806
64.0998248911101
63.6922523348583
63.4977916152077
63.3208768051998
63.01653990789
62.5241666924718
61.8643612194332
61.0702637673697
60.2267156899109
59.3768254790627
58.5839525880955
57.9227561899446
57.4886713653764
57.3192298962315
57.4608406410383
57.9213718277048
58.6831790274242
59.7088981502552
60.964401075792
62.322593248343
63.6626184935951
64.9570445439775
66.2878894924413
67.6726371538733
69.1022010672804
70.5143514796607
71.8879150868199
73.1771271376796
74.3845993855129
75.5407259893889
76.6659390739336
77.7398573361525
78.7581574122259
79.7410548068423
80.7273851838285
81.6772836658845
82.6089623417335
83.5148633136703
84.3707138021723
85.1257362204262
85.7202336830013
86.0732742326226
86.1623856032711
85.9746611976489
85.5785807050478
85.1442646735047
84.87555274784
84.9530250620229
85.5163146281293
86.4715882433124
87.4935480266946
88.3090480113986
88.8987952048821
89.288308708142
89.4841698984719
89.4671578035414
89.2845279672111
88.986009187159
88.6098858329757
88.1549118944138
87.6050310324246
86.9048431708403
86.0507552122108
85.0851873813058
84.080064300325
83.0893308625174
82.119549327207
81.118148291513
80.0738124762026
78.9483635029032
77.6968567535662
76.2511893193086
74.6001736069128
72.7972648832408
71.0094015175974
69.3821272974146
68.0758435472343
67.2579337260973
67.068687374165
67.4738621893234
68.0720367675107
68.1566553849241
67.3767190520383
65.9130704949691
64.1530636569165
62.3994587157344
60.813051895097
59.4456991888112
58.3496398204433
57.5376731231028
57.0126747980663
56.715508704072
56.6010283987143
56.5744537007236
56.579997088972
56.6497837302608
56.9266275538211
57.4957870647235
58.4034389240855
59.5849008288684
60.9007687497122
62.2429427382011
63.5653750846078
64.810934191128
66.0283081964631
67.21434295353
68.3427968404928
69.4019382030775
70.3656591265769
71.1600784065824
71.7169300600796
72.0045524335966
72.0702013355874
71.9595466803689
71.7219066377359
71.444596836258
71.2676328254591
71.262104465575
71.4496346097299
71.8105049170484
72.3200816897313
72.8823330172868
73.4660595403345
74.0747499620129
74.7083634440618
75.2789558317724
75.4280947641905
74.339006858766
71.2572976235388
66.604781513349
62.2251142629418
60.0223627500646
60.6810938872557
63.0951495899147
65.7188712612133
67.9926393174711
69.9239148062781
71.4930596397571
72.7973205835109
73.9239548881123
74.9110801059845
75.7329287311215
76.4254144882656
77.003558260477
77.4291547411922
77.7110610594219
77.9060830525495
78.0362761850117
78.1669348001715
78.2826940486352
78.29525170961
78.1766817874894
77.9327095451398
77.559777105361
77.1845960713837
76.9123247813518
76.78059938046
76.7623613376678
76.82775976711
76.8671814660116
76.759190103716
76.419031072175
76.0326992844775
75.8839883422507
76.0210183882896
76.3257727663656
76.6995187802679
77.0996219612419
77.5883136121307
78.19180282017
78.9083215173703
79.6073219912206
80.2069039798399
80.731565462395
81.2021155056305
81.6235488697141
81.988331412833
82.2705417128681
82.5358815445868
82.8098170790857
83.1326509721138
83.4741197330134
83.8115615736636
84.1561548836447
84.496611261219
84.7335405290889
84.8863883727017
84.948152119587
84.8524698110439
84.5752013562989
84.0658756108569
83.3881131299868
82.7729428606492
82.3550786287904
82.1385537505973
82.0686214830087
82.1057805548801
82.1473389495994
82.1832898577722
82.2339695036374
82.2291894127693
82.0072549541501
81.4337057542087
80.3919279916815
78.826062642735
76.7473289318338
74.4731703444449
72.5660222194536
71.6477166203997
72.0246132450783
73.3589027883701
75.0048717280279
76.5904001932583
77.8776371195833
78.8468557277339
79.5496715213061
79.9891138455783
80.2161548568665
80.3353872070947
80.4025361106707
80.440566937173
80.4273668879342
80.4067697176252
80.3778720154189
80.4866161255773
80.6878080591644
80.9037728184948
81.2000263593666
81.55174382186
81.8647960925538
82.1334391895219
82.3719733037564
82.5659019011259
82.6157093951102
82.6365321426372
82.7222439289346
82.7572444685508
82.7011068845718
82.6708144514121
82.6594924689066
82.716336683402
82.7396571081581
82.628262203574
82.5365181622787
82.5913420438202
82.7335705420652
83.0193871368221
83.2497205337358
82.7410356522093
81.2706656437508
80.0361921409587
80.1209628238594
81.2428872510746
82.5989097488272
83.9899180814567
85.2435462532545
86.2202789872412
86.9821396330242
87.4924167379096
87.8815917717561
88.2975060110568
88.6669153277845
89.1022450395434
89.6504481915805
90.3064731480576
90.9294793236197
91.4802012663403
91.9945822148429
92.414945809075
92.6719701100451
93.0037085585277
93.4109567688604
93.5744457021888
93.5399196808909
93.4654651751281
93.1853632378826
92.5849814116
91.4592735391476
89.4041141816457
85.9348027568671
80.9058529803803
75.0096655920429
69.3067414249869
64.0406002606171
58.9472544140745
53.8326188071693
49.133741650493
45.8285313394099
44.756763415204
45.7245199353388
48.2669879910783
51.6032670422694
55.1780906858895
58.2443458001932
60.4092152655173
61.9542379576384
63.1606589212675
64.138795035632
65.2225745540754
66.4703237393362
67.8993869073388
69.4170679791582
70.8028873545262
71.8702921653519
72.8445896502852
73.5090146585256
74.1326241442852
74.8117878004237
75.2869341472206
75.3782966183039
75.4329865111288
75.6177006624632
76.0259430331216
76.5455941834068
77.242703776044
77.7013564468838
77.9101696546471
77.8189301556496
79.1894721852511
79.7123951889753
79.3803380973641
79.4731470973401
79.5873563164296
79.9310355787047
80.1641636265889
80.410664772923
80.7066691385053
80.7832645377368
