1798
3999.43349933624
650.420452594757
1
128
4
102.759414073451
102.74819213103
102.802627278689
102.830632749175
102.80020979988
102.793994730544
102.803850250669
102.784056505819
102.908121371009
102.913005017377
102.831036414466
102.650423898345
102.722540356427
102.823612427171
102.767338232284
102.674605586454
102.75368975738
102.790723072798
102.866651775991
102.772529943954
102.622766092558
102.620197934221
102.737947285013
102.783217528449
102.761822518706
102.644977727725
102.624524787242
102.573489690263
102.581685277109
102.616380848549
102.624973667228
102.689678162099
102.753946674436
102.685482867114
102.690917058606
102.493128346259
102.512035629358
102.460314525873
102.473933826148
102.614517277857
102.691221629873
102.694238893152
102.564271630843
102.586829573429
102.528646098745
102.656622722548
102.726502918305
102.728203442854
102.558553052279
102.500303375334
102.327706715508
101.843106121626
102.106218417803
102.345014149617
102.491147531424
102.396155308523
102.334566156936
102.46520807294
102.341406773252
102.748984880599
102.604110559868
102.053126517315
102.233812603114
102.368589588559
102.339780550757
102.409414323843
102.34705009188
102.024442226789
102.445035037809
101.853592197838
102.228434745759
102.279617808128
102.379552595219
102.403570391399
102.389311618527
102.163109658963
102.160929057462
102.35901335019
102.035343150619
102.341354881863
102.445020300666
102.58757506081
102.667732726504
102.437099475
102.243049290746
102.101636899506
102.147962772346
102.26069473866
102.351333103594
102.512650466907
102.463026849823
102.707095718183
102.415486315939
102.271035410399
102.514117456579
101.974458871366
101.983514882494
102.56435918222
102.290081082567
102.594132547516
102.444997421395
102.583348134507
102.712850950974
102.143201753253
102.28135820952
102.416511746953
101.949430350877
102.184917666457
102.121786053869
102.298350305708
102.485727129778
102.551208935821
102.438542077276
102.481906669483
102.549990713892
102.352986269815
102.403112630123
102.44940978268
102.43825847471
102.738384781739
102.598982103249
102.558153601721
102.43550182539
102.374635090226
102.644936558521
102.406451743298
102.456337837977
102.513853371365
102.369716634386
102.319050306399
102.203323337748
102.263692208649
102.050105518786
102.119858649827
101.505350391063
102.451247380741
102.15917992088
102.418823074134
102.22811201479
101.961710543769
101.67989079165
101.454783404765
101.938815688952
102.012410882441
102.320356134924
102.565300227131
102.267213078168
102.209124801338
102.120280666411
102.314538532732
102.353506169841
102.244815433171
102.332981047082
102.256173154513
102.090148605847
102.165940706068
102.308696872764
102.3748714483
102.445405722597
102.387068740679
102.434880192868
102.604786658997
102.507126365181
102.435355821698
102.040688171103
102.058858637252
102.100043576243
102.211020712508
102.397956939932
102.440706894281
102.553691257069
102.032649629369
102.140526451857
101.71142830588
101.888517999567
102.10577310539
101.931823260167
102.032616651679
102.197960442101
102.286432638031
102.36074764251
102.235599086709
102.220939662262
102.135651384419
101.808366279867
102.042596193284
101.712278057617
101.498802414514
101.559320458967
101.739336154462
102.01616704924
101.969704032436
101.974450314338
101.866152161038
102.013720326138
101.954201280845
101.538142680296
101.636924169623
101.243347263142
101.615328324232
101.846720021736
101.897846075902
101.874320639357
101.685445998112
101.417112984199
101.52109633134
101.555123474084
101.466379351868
101.571662947193
101.576672492142
101.661779790311
101.692109716046
101.685596303488
101.658539410252
101.621854416386
101.600908419395
101.625817629071
101.70348101151
101.611630381205
101.506024432261
101.448300742299
101.723655055048
101.745267171684
101.556696472133
101.586576494721
101.666800133246
101.617355032491
101.585489093263
101.679777928147
101.747013863457
101.657805786312
101.302386716541
101.123837091016
101.324275559794
101.481664912146
101.470960532927
101.506040332264
101.542615584934
101.426428345522
101.275392168297
101.360462285817
101.357367400125
101.102050243959
101.080690921386
101.15933990671
101.269087856197
101.368976962646
101.359881705304
101.257284359716
101.361589059931
101.393917131959
101.355005832003
101.239039260494
101.247081140144
101.224588506497
101.209702794978
101.335046059767
101.345578898179
101.319828483275
101.48539301968
101.434130055538
101.289535773186
101.289491006429
101.369535822247
101.332794905575
101.248999466429
101.213115389121
101.169402688011
101.211755823936
101.368594219811
101.359004567941
101.278549957563
101.336737621094
101.386414113929
101.292803598641
101.273072745416
101.423506165145
101.420209902379
101.272348504645
101.383426994551
101.389759618954
101.236516949213
101.246576258507
101.206695459134
101.113519323039
101.244193840124
101.350296802107
101.311375025694
101.214570257961
101.120074642968
101.06384093089
101.127711228023
101.168311410106
101.11183479025
101.03755425731
100.986826082488
100.966666916305
101.019042690004
100.964669516212
100.855345249454
100.644604716297
100.605037155958
100.667107419991
100.72821744909
100.725896241471
100.770287577157
100.89602233631
100.980679519894
100.83990796053
100.731991256672
100.66540956002
100.713108754436
100.718555771747
100.684321045406
100.723093237284
100.788657641683
100.959001120496
101.017540039616
100.78248832326
100.692268762536
100.664983186814
100.792426504731
100.951698098661
100.993396636204
100.920026280441
100.931797233903
100.997748816262
101.025751622474
100.992919494514
100.924875820842
100.954704479865
100.93717583866
100.837007183808
101.01620800492
101.047993789398
100.808203933658
100.773872471423
100.881816446414
100.936631663088
100.954715615463
100.977047017726
100.96850720638
100.870265061829
100.897306415549
100.946818193333
100.878651570541
100.805471404887
100.837904562442
100.86395155789
100.867128848372
100.828612893741
100.828090660011
100.874608653743
101.006641436073
100.956671227901
100.858230578873
100.890266504623
100.984987405917
100.946578934665
100.860915994369
100.961983326466
101.029262143325
100.91414001805
100.858529647137
100.893390247836
100.8827588782
100.882166762516
100.833374333062
100.802321122985
100.857777162281
100.885779232134
100.953284811818
100.980498317744
101.002466000871
100.895462904177
100.863499597451
100.956018558499
100.910074930504
100.864290428271
100.940049154767
100.928746784717
100.856509117222
100.844711850962
100.820818178484
100.837379390214
100.934616782457
101.005937851497
100.966087801595
100.830702941322
100.769091433601
100.87251313833
100.935550727264
100.80024210635
100.801578409002
100.914019440902
100.941155362154
100.908810038511
100.92924144407
100.990271293857
101.031817007249
100.98793164906
100.856823495957
100.908713976835
101.014606838358
100.939144228039
100.906445945542
100.908497851087
100.918537312613
100.980960127156
101.019596602861
100.939235912232
100.920541325015
100.963359569369
101.020437290017
101.041324934036
101.025785146831
100.996500437078
100.914090712578
100.917756823003
101.011948449174
100.946024257349
100.946835087788
100.997250867461
101.011606179012
101.056104926924
100.995531655527
100.879215296863
100.908588245334
100.967985088699
100.970696032208
101.021655222742
101.062868007321
101.050312725921
101.089386783438
101.076098002249
101.038195015963
101.079341645095
101.107121893547
101.072525611895
101.122641635669
101.112788674476
101.076950508269
101.123857477231
101.122932887042
101.072248798313
101.049470801663
101.097748374281
101.192799915368
101.233982155534
101.196572150256
101.158574056419
101.182962957005
101.210656347975
101.187618792892
101.141126544806
101.133329447782
101.153407034107
101.15380131903
101.135539300104
101.073002234137
101.037121756075
101.119275609223
101.117779345616
101.064798082941
101.157344243197
101.2044114895
100.975118368282
100.876447957726
100.996582553311
100.96550680766
100.925526996584
100.97981743922
101.05028752476
101.03711616238
101.006977562048
101.033412876743
101.099000050387
101.113292108177
101.009099896497
100.930439579857
100.899677227311
100.871752775869
100.892645420826
100.940955403472
100.936665415515
101.042409759007
101.031618818708
100.942419204545
100.798672403019
100.741258058404
100.838472475079
100.875099610467
100.790247431667
100.763769786809
100.778207317887
100.810449801967
100.801507115201
100.754707432725
100.732038456591
100.70145277209
100.650659490503
100.690181436601
100.803853476039
100.815515731382
100.717759914296
100.652085809502
100.645302956508
100.69964781882
100.758931482981
100.755949261602
100.805633092439
100.889019127261
100.944036007968
101.001376845038
100.960241352765
101.008246695046
101.135612322924
101.113857236724
101.08301273186
101.122657348931
101.075642868522
101.018930981383
100.931641874968
100.935515844856
101.031886663115
101.055146137291
100.949949794138
100.927615132334
100.900503366911
100.842342763447
100.737281881871
100.623667941
100.58427938467
100.567208830883
100.515300273131
100.43697486142
100.361639253204
100.293921008538
100.273159202104
100.234976968502
100.182275434704
100.118184944235
100.0150274849
99.9233756482419
99.8292883130294
99.6881687157807
99.5542087492165
99.467847179725
99.344062204626
99.1814276620887
98.9474953672348
98.7122198493826
98.4517180181471
98.1959386458068
97.8909580964166
97.5606504075157
97.3039027539563
97.0738976858852
96.8029539846013
96.5891456493756
96.376533554506
96.1803373330152
96.0669812054718
95.9320141802762
95.8074462252679
95.7002626362222
95.5834006386412
95.4706704960993
95.2510116285147
95.0051127701833
94.7873815134759
94.5354497552072
94.1936000783387
93.7856568479352
93.3828364493824
93.1588297946832
93.0140502214462
92.9239032891533
92.9903671382228
93.1422846385794
93.32754758583
93.5920218847637
93.9809269274105
94.3615808894974
94.6622165962872
95.0124976546342
95.3142546065194
95.558292862185
95.8461342250268
96.0640748474429
96.1834238049571
96.2402473564408
96.2826254827962
96.3271600187879
96.4385812724901
96.5956257232943
96.7224079364327
96.8243652993913
96.9852228612167
97.2275583832424
97.4056854006428
97.5860630885775
97.6850007443752
97.6210490077866
97.5810804274013
97.6123100526639
97.5452269198577
97.4397819212533
97.3499145059328
97.1858297445587
96.9337942835981
96.6486619673022
96.2697981478412
95.8292233096794
95.5014911826513
95.3927804203286
95.4710613457599
95.7201458125676
96.1234518666721
96.595788971964
97.1181742410147
97.6612686151102
98.1027461362131
98.4505300128944
98.7603782633589
98.9765048579589
99.1585317546001
99.3560071787333
99.4891873992353
99.5834998878594
99.6507962356642
99.7235625530772
99.7993066747238
99.8597645521665
99.9371312444243
100.017994700049
100.029850495238
100.005540461597
100.03345124074
100.093810349555
100.167109050955
100.232692568574
100.238939756517
100.216932111485
100.225891478183
100.272113389371
100.286133859134
100.319954738568
100.352424503755
100.346666043163
100.341852869696
100.39024953763
100.382593473646
100.378890007621
100.416298159671
100.448528681811
100.457727416089
100.496165328998
100.50938205608
100.511772709923
100.534678189625
100.563162854198
100.552202988962
100.553885323365
100.584411272032
100.543370167767
100.496279182281
100.542711049208
100.535379892727
100.525425049515
100.557314335538
100.551324217188
100.553657678073
100.62833848181
100.6842675065
100.669517438534
100.580530777097
100.575380319854
100.648296124582
100.660423236089
100.668235280845
100.68978270345
100.647915902467
100.601898763241
100.581190187153
100.58673217601
100.659146532992
100.722488417632
100.716837144387
100.74336491896
100.769980722946
100.716975182109
100.686872101685
100.69640506672
100.679762150353
100.688491154416
100.713220904374
100.728909292324
100.751886387993
100.749851106321
100.728659915252
100.764033367066
100.778787072996
100.743957909807
100.717831680037
100.71117670655
100.712539209097
100.734225335615
100.761770563058
100.770437073415
100.780750419285
100.7428549865
100.691889789645
100.718630037879
100.724345460444
100.66500903495
100.650067764931
100.696236398409
100.695360160121
100.676350613535
100.657115341297
100.748704023631
100.813130108107
100.753720472678
100.714612901749
100.727424858375
100.748646297828
100.763936164259
100.698525002395
100.666851817532
100.723246374868
100.773615818654
100.790043082745
100.771439362522
100.778865265412
100.785272961151
100.828052796081
100.862176695864
100.846468620441
100.868872932523
100.861107929143
100.873846590897
100.940364045414
100.891769536876
100.843471538861
100.939771362024
100.994904617771
100.974312319689
100.935201876461
100.940475767333
100.990108058993
100.984636808452
100.962126905741
101.043427797858
101.070589313695
101.066876321039
101.078071735128
101.107906007527
101.052606443836
101.040220015529
101.028701987752
101.046143020134
101.089877848158
101.059329709035
101.103415055361
101.143994838412
101.039442055686
100.957656840869
100.977241917899
101.067768823421
101.056142256208
101.063622669618
101.14306285613
101.161286800194
101.187994950869
101.240693770013
101.248554867138
101.280165758219
101.290671308133
101.111386478567
101.033614439688
101.173524141335
101.163937856377
101.152970253185
101.201534933126
101.250818177164
101.131520111665
101.162879086268
101.170925665172
101.13836635102
101.106805029304
101.090701033086
100.993016878554
100.977622834004
101.065236386096
101.183787100313
101.171362555877
101.133588557778
101.158266040011
101.269268640744
101.180102772696
101.060452543615
101.070890001222
101.162201194248
101.192464265542
101.169915277675
101.094879100326
101.164768703307
101.181722073054
101.178043563875
101.137281522459
101.059768259
101.045622906145
101.052452370043
101.150260792196
101.252541301215
101.203293898702
101.110535919241
101.09662070686
101.076291719812
101.069654333854
101.130350457538
101.087602076456
101.074275075468
101.16136537112
101.192640806623
101.113769638629
101.139387818683
101.083024771821
101.061729059977
101.12556495531
101.093339625534
101.072669257068
101.197881561551
101.126431351058
101.062328904025
101.05198114605
101.018636050358
100.978304304767
101.003929603447
101.058810032509
101.144304104902
101.152809519627
101.124542247838
101.103903081409
101.045247912936
100.933502312739
100.993260379736
101.041213726322
100.957214565437
100.875565609496
100.960004017202
101.014929123013
100.949678839502
100.854125062399
100.823713557586
100.832655954851
100.831960500772
100.840460679655
100.833387339596
100.841915412192
100.86858104393
100.778745726575
100.70919686502
100.717096722747
100.721718521084
100.694068211494
100.68691291667
100.646260000854
100.657324496862
100.755263161755
100.733761860014
100.808294546874
101.177061056997
101.302123594532
100.988437455476
101.123483390671
101.203654718206
101.183491234304
101.271671195566
101.3380151048
101.350628219068
101.092999702431
100.954046199911
100.935360246073
100.779492562301
100.772700993628
100.91206809985
101.063505500679
101.095217192322
101.071076615764
101.00690078885
101.037276428856
101.202281374655
101.069250561153
100.8571114648
100.937887985207
100.798114377771
100.747979089043
100.799488600727
100.683560324523
100.68769482171
100.68642039655
100.699463793667
100.798570486476
100.943010942278
100.889097972414
100.8575781054
100.772607873382
100.784892281899
100.85935081836
100.963023369731
101.004280609782
101.046541197511
100.991933237834
100.891396960363
100.830076822295
100.935992267087
100.925364576769
101.012379346613
101.147486691437
101.12747012725
101.02814449957
101.09018337166
101.144585317756
101.251803645299
101.309053491472
101.322225933581
101.281662728166
101.433590587898
101.45801753018
101.428661098098
101.49878331687
101.619868837164
101.685719174201
101.571629538212
101.546974706527
101.673583221408
101.52584242922
101.499215150363
101.548030098093
101.594805223961
101.490961010572
101.538414056779
101.692020861049
101.862290148296
101.844803036779
101.805176317895
101.946500577446
102.097074478965
102.004368069817
101.96447429176
101.96647006681
102.183546438498
102.013849309277
101.902915033475
102.115503819643
102.337573404253
102.126147625266
102.037437744189
102.133837150424
102.393370522976
102.272525315559
102.068215041015
102.131897718932
102.400050077289
102.321046096304
102.332748033301
102.244393891773
102.465457533597
102.570589285216
102.485363703542
102.506332139464
102.577145680345
102.842562129552
102.94082851628
102.421217074501
102.369212766748
102.62342305582
102.863565135252
103.027102246236
103.235294201714
103.091744838837
102.867168048056
102.629797012535
102.803629316366
102.801681543237
103.033722185301
102.883174751368
102.906984141454
102.835662033862
102.331360310454
101.846420415716
102.029247791315
101.979124142871
101.851223474839
101.823129161813
102.006176759943
101.837014931816
101.745733028571
101.595280778185
101.577233871728
101.552565208384
101.418453201764
101.335102593082
101.250490480251
101.114041033754
101.191109444169
101.165967177107
101.166968665207
100.989330754356
101.11752417205
101.266534776707
101.154285406374
101.104700728521
101.29131267206
101.285940743397
101.093648023315
100.989103527623
101.247629043336
101.300020230946
101.267163351298
101.224729698357
101.146070917291
100.962923055825
100.988023093565
101.065439525725
101.252451477791
101.212594754846
101.207923979489
101.43818980556
101.485342522823
101.257940162955
101.335865724692
101.247436434736
101.411936081486
101.584822540162
101.526496071246
101.367613921542
101.410349729443
101.305958756263
101.312625621973
101.600165654368
102.003257659316
101.915341240993
101.650961072204
101.813174092852
102.331094582702
102.452981930934
102.653380769833
102.838640826973
102.618945013824
102.396455299766
102.702356437404
102.802161990546
102.759391911088
102.305893844987
102.331475566002
102.448160621578
102.328730674956
102.081852219178
102.063077825627
102.033294745245
102.079935860705
101.894215494084
101.719034651562
101.690401189332
102.163787090896
102.222441435888
102.333844713977
102.122114221132
101.762153689603
101.50006523219
101.460318717931
101.481539137469
101.677430274469
102.028692893075
102.068134719548
101.636198634162
101.743698591543
101.811126302809
101.875863084027
101.78429181474
102.050510516373
102.322019871004
102.354501134537
101.930252717083
101.790950793759
101.625627705701
101.805839325094
101.693863165702
101.46160570763
101.421469391605
101.499069703409
101.06877942686
101.257728902748
101.240188185484
101.093224383104
100.962017717352
100.99119624863
100.888910376982
101.013871267664
100.678100689397
100.509751120226
100.595828632439
100.703088961156
100.666786016401
100.726631228996
100.592104206584
100.559531474007
100.517287080193
100.572555703589
100.629298370324
100.645795104626
100.621169652065
100.423953101486
100.480583382469
100.55353384345
100.543281274216
100.718732028863
100.686493685854
100.60454903119
100.462891245355
100.472872221332
100.541757616819
100.730565751227
100.712391141144
100.623102933611
100.421368691713
100.492746536783
100.546777996328
100.570872323624
100.457579282692
100.433208484937
100.47746993129
100.522907032931
100.558866957786
100.625781351483
100.583676892409
100.562436559698
100.507563803145
100.437751016535
100.35165910675
100.358623196879
100.274999485545
100.361761356453
100.381080410704
100.419284883527
100.364502445162
100.401311007287
100.431162191738
100.464635208295
100.376717190655
100.365081974742
100.255215165804
99.9649667425721
99.8976967715812
99.8276223510867
100.003856702665
100.094760768536
100.043089489721
100.120502649749
99.9983469126689
99.758383307152
99.6882335270837
99.5222296582203
99.6276727248192
99.6480368488928
99.7694467357453
99.8464352700748
99.8002598251986
99.8327796443455
99.817886059002
99.7547710291341
99.6713622464083
99.6366405302539
99.7226701185334
99.7922979573164
99.7498690900797
99.6347206444261
99.5464649888851
99.6175879477617
99.5635602120773
99.440027341527
99.452266872532
99.3485355338405
99.481119681664
99.5565520297911
99.5679246074131
99.3903102267774
99.4288407964095
99.3293983738628
99.4255972692368
99.2976204763795
99.1197151520744
99.0529105973729
98.773370623524
98.9814046468496
98.966745749236
98.9693373815581
98.8812512784013
98.744910750547
98.500285853928
98.4871731730239
98.1894653560463
98.0957935015691
97.6294155730097
96.9914272242956
96.4423113013237
95.8446005497846
95.0293023298588
93.9267905852283
92.7570659399887
90.8744321573195
89.2624286373113
88.175014603787
85.476927771597
83.6434382983362
81.8449075385792
80.1926752623208
78.6094966178376
77.0948710869316
75.2949568755482
74.0095603716754
72.9055355596416
71.7386659811229
70.9242454018649
70.1549992215425
69.7153449209382
69.4408710387146
69.7987419698021
71.0332088910144
71.380352029224
72.3103475395179
74.9176575819559
76.4408636990188
78.732943431082
81.0591048997109
82.1726757209895
82.8710719845665
83.7332766250573
83.5738612202544
84.2497444529876
86.2286277141394
87.6460812889212
87.7219499694248
87.7268000592776
88.2695753454908
89.0644161956838
89.2056984724391
89.6379494727936
90.880363294912
91.5116685310189
91.4910097471829
91.9475748803769
92.7990375987222
93.3226497483747
92.8439145025945
91.8962326827371
92.7627914247641
94.5553732072922
94.4427158464753
93.8139107220539
94.5222406649482
95.2945522549451
95.3983132262704
95.1518976229148
94.6669010638765
94.6521876261943
95.4187842574922
96.0711571973793
95.9108016656185
95.7781088578626
95.7478327920476
95.9067772946954
96.0995179941655
96.2925886475683
96.1091930126787
95.8076996295267
95.7582035825633
96.041398846121
96.0001388065284
95.9286732982182
96.1314952873353
96.3696745845081
96.6046727754807
96.7271739322348
96.9649200031774
97.1146334108355
97.1991069951308
97.221904678889
97.3216089523808
97.3808414729947
97.4663554728917
97.4516755903043
97.4590584654935
97.1586427399074
96.6670343674367
95.6760469168079
94.7328354014792
94.4616751685063
95.2151709360227
95.7315271338518
95.8712516925094
96.21445856558
96.8597123135792
97.2557568306921
97.2068896744653
96.9317766016236
96.3488962243726
96.5280239895909
97.4254762881819
97.724680975848
97.7972437616339
98.0312248731063
97.9548624567411
98.0306950283139
97.5750864770999
97.2338175345196
97.1058389229226
97.650203305885
97.9854420346028
98.1624370717831
97.977471068648
97.9814624731434
98.0427096472042
97.8972708722663
97.7920536454439
97.4765097770915
97.5659429914843
97.4693253088767
97.7627543842386
97.7735569139137
97.8574999438628
98.0840321046791
97.7067448947244
96.9645469801163
95.8067382362512
94.6967307458221
94.7702404918353
95.3359959645572
96.0483014353668
96.7139592645815
97.5128819723246
98.0922048971877
98.2422387569635
97.9351638852847
97.8793401053176
98.2327029595386
98.3636712329555
98.3973637230539
98.2316862483626
97.9492339951626
97.6110663790145
96.9288043646593
96.5795567165034
96.3666754301735
96.3027735611203
96.0293508073295
95.5746336863003
95.1728865949706
94.8332708318433
94.3749489053717
93.5144114467537
92.9268329890393
92.5855491215344
92.4955069177508
92.0121987369365
91.8921017500226
92.0262733187544
92.6388174941119
93.2080941461203
93.690239883376
93.8808490644817
93.9984307977178
94.2240479970874
94.9939735056608
95.6671090057774
96.057704351277
96.5551306411775
96.9147211964651
97.1352924455943
97.1455965700335
97.2460889191669
97.1326100655277
96.485160542459
95.9798933878141
94.7988316229912
92.6470878249596
89.7658565580919
87.4447769835928
86.5590361754337
87.4279278805885
89.1293930386144
90.4697903533616
91.3929105710327
92.133680585816
92.7490576061045
93.2827386068524
93.7749242403757
93.8563939712334
93.857287604969
94.0523327535324
94.4428607925493
94.5459272076312
94.4403694140525
94.1672416699598
93.6642020435348
93.1229727828992
92.7250736657985
92.62682802745
92.5935975170513
92.8704104112797
93.4621025944734
94.1413053351766
94.9238101778628
95.7839931228063
96.3072906975215
96.5773107363182
96.7213591295347
96.8458361777679
96.8876652090062
96.8370673361694
96.7066534950555
96.4927254637679
96.0808771955774
95.5502053275714
95.0298793380063
94.9609614892269
95.3272024756003
95.8256833248497
96.2387045209336
96.4941839101816
96.580785915359
96.5032233452404
96.2750089145047
95.9145517233934
95.4740975391569
95.010233282479
94.5954065908121
94.2603749567739
93.9491338252323
93.6692799171683
93.3107613164354
92.823045202798
92.302141497191
91.7827374247635
91.2255677528341
90.5624078219684
89.6619441497255
88.516198611851
87.2661361437543
86.0738648276949
84.9776106071419
84.010767385605
83.1209335102579
82.2553438625256
81.3555406987553
80.4099110214974
79.4229758832899
78.4713913582317
77.5521163744288
76.6508324586706
75.7696377651187
74.8827096572728
73.966390120705
73.0047272862587
71.9917037585078
70.9951345737923
70.0802195815953
69.3866168310862
69.0152518145149
68.8442842279366
68.680230025153
68.4120289030547
67.9964256274924
67.4357129236813
66.7397639647775
65.9617262677561
65.1565111588319
64.3894243526019
63.7082284190019
63.1888353718131
62.9134779078873
62.9536305140908
63.31739886063
63.9976749550713
64.9460583922766
66.1172420594855
67.4208394220976
68.703591996194
69.8886816897718
71.0950566989071
72.3943726228827
73.7448557193669
75.0668423749183
76.348739449917
77.565305469392
78.6953070090904
79.7557083084942
80.7697282312953
81.7223692438477
82.6228455462326
83.4907730254683
84.3342893866367
85.1492317343926
85.969103017391
86.7768512528388
87.5518272038814
88.2438986751462
88.8019866695426
89.1743061650056
89.3106181716751
89.1823822859921
88.8464571640482
88.4246465808519
88.1014533719305
88.063727682387
88.4744964122606
89.2718433921643
90.1659664699727
90.9204604878218
91.4763792424119
91.8437562625859
92.0555987051764
92.0881431613645
91.9510461226575
91.7041741585976
91.3964816556176
91.015025012485
90.5480744741337
89.9511490406748
89.1932429304304
88.3454353753359
87.4852868034291
86.6302835232353
85.7869565899285
84.9332405672449
84.0576965128992
83.1112494932226
82.049732351047
80.8179945298331
79.3784220146019
77.7804878710108
76.1481817290145
74.5953430211363
73.3086433577035
72.4512373143893
72.1792217316163
72.5227093912569
73.1313839551526
73.3588782905941
72.7835087769873
71.5066705388734
69.9330924260892
68.3304464019494
66.8338117633033
65.5059465950676
64.4118785461154
63.5971996121011
63.0737519610961
62.7865124715922
62.6507905994493
62.5879009460347
62.5962506760303
62.6555486809225
62.8569624242278
63.3424978319573
64.1592229996776
65.2267591887242
66.4512764485702
67.7457487919689
69.0385627840515
70.2605434919131
71.4250296768276
72.562434091425
73.6658058258577
74.6839446060082
75.6125230179457
76.4029024803019
76.9811799296398
77.3179083371808
77.4353584651977
77.3377973669013
77.1063357143242
76.8441042125962
76.6306150568238
76.5615327993511
76.6753250362451
76.9465051638155
77.3719355972739
77.8790963912916
78.4139468054228
78.9815147303321
79.623798816842
80.2994173781443
80.69698644214
79.9962673937376
77.3711286220331
73.0527441696462
68.6445668713673
66.071991037656
66.246760962097
68.2890058537915
70.6808091353233
72.7800584066925
74.5699730677647
76.0407043521081
77.2787981002886
78.3500631453626
79.2601781628771
80.014078216595
80.6502139979469
81.161063584879
81.5195997409085
81.7521311635382
81.9019587483793
82.0093258937271
82.1192218536835
82.196571570361
82.2021610740103
82.1090353737778
81.880455912271
81.5484348650971
81.2267405864616
80.9549116770836
80.7853855314901
80.7543099145518
80.8149717703545
80.8496829420864
80.7437907070663
80.4264797158295
80.0481281719867
79.8527831163571
79.9387210115612
80.194468676938
80.4895286242975
80.8244569399471
81.2487890532458
81.7566432793876
82.3730056218735
83.0110731404789
83.5677544875657
84.0410858114374
84.4549674105257
84.8445663468515
85.166602463319
85.4106513683672
85.6433337757539
85.8676974811847
86.1242120234248
86.4179994434515
86.7119749428968
87.0186512256646
87.3191354774634
87.5392967886453
87.7006859386362
87.7795763504128
87.746694033449
87.5484138231961
87.1277131597489
86.5201422771069
85.923520439257
85.4987820098393
85.2700574844827
85.1754027893383
85.1568087524854
85.1818099766606
85.2285889004057
85.2857039987817
85.328079014993
85.2222108467647
84.8786881644001
84.0920597473942
82.7297293430534
80.8922863279975
78.835051315401
76.9651492899736
75.944030730858
76.1016925293898
77.1934447688256
78.6848361832913
80.128111953016
81.3215519353709
82.2527622182365
82.9557034682827
83.4071946441122
83.6556407167132
83.8164898838626
83.9156062134145
83.9084988486551
83.8465941567887
83.8421545374084
83.8297881336189
83.844592823495
83.9867255293987
84.1889992256874
84.401881063735
84.7081038301492
85.0301639061709
85.2932653039224
85.5436645654499
85.7565894107706
85.838937081084
85.9170120253141
86.0319649300239
86.0972156540187
86.0571635470024
86.0639142903171
86.1457402880692
86.2136758454419
86.1546627282612
86.1093123757025
86.0941493849388
86.1548246145077
86.3637299950522
86.6726740479869
86.8640852291055
86.4510011545585
85.1113884536317
83.8568106937675
83.7767341384967
84.637423879061
85.7812472940099
87.0072367702486
88.0834351251141
88.9010557278939
89.5729686817089
90.0206611665191
90.3337980632494
90.6827553957013
91.0155969140757
91.3322039482767
91.8484162435974
92.4320730695738
92.8945907087218
93.330197715458
93.7267627819077
94.0797735528598
94.3726325066563
94.6598630390012
94.9201849190388
95.0401591911936
95.0434523467031
95.0547092542401
94.8934407045449
94.4920574774767
93.6978552178554
91.9924910964482
89.0307209031038
84.6892377879845
79.5116333465054
74.3410160320278
69.5328877888025
64.8020773473915
59.930425119422
55.4415346716493
52.069894791659
50.7392296589952
51.5215603837082
53.7642037423194
56.7890980629978
60.2765056917819
63.3348962716304
65.4819270024737
66.9410500916054
67.9709467673565
68.8229834127845
69.9437646001454
71.1280415495927
72.3825241832814
73.7245421511604
74.8502290650838
75.8841220633177
76.8168557779597
77.4668394047647
78.0229643881854
78.6622033713903
79.1877603022911
79.4626338486595
79.5229445105543
79.5487370151114
79.8801833799863
80.2136395552419
80.8701133820393
81.3164797984142
81.3832704369505
81.2772843255712
82.8445668906116
83.4655436838136
82.9733100981657
83.1077797358644
83.4016313620694
83.7627809292398
83.635435972758
83.5286285045874
83.9884273269518
84.3033829465617
