1798
3999.43349933624
650.420452594757
1
128
4
98.4984601348906
98.5331200293379
98.5282914177981
98.4646521397223
98.4060245887824
98.447588156856
98.5174492755741
98.5211937617018
98.4403116051113
98.3761063931499
98.4631655005333
98.5672305259359
98.5435768775049
98.4691715844684
98.3942711127844
98.370934310766
98.3949192238233
98.4232836067566
98.4469809607788
98.4851641613002
98.6089562853987
98.6767215417168
98.5968105580232
98.5296985356279
98.5307393580241
98.5312921746779
98.5184865290705
98.4887132875738
98.4492679280572
98.3412118961205
98.3521352256653
98.4769997577736
98.5153162120189
98.4972181126647
98.406318270454
98.3142960538504
98.3668444904331
98.5069290492535
98.5816079073164
98.4650083428549
98.4216941208033
98.4221390359296
98.5006016063667
98.5827368391875
98.5280542479299
98.4743796572637
98.5395210411459
98.6002301644806
98.5653182233166
98.5255843517404
98.490020194599
98.558037264388
98.6617059359707
98.6009830988497
98.6083191583522
98.6441116849456
98.5450482885942
98.4182681872691
98.405205140477
98.4223961833888
98.4241238479694
98.4996912168176
98.4591716422588
98.4339975898529
98.5676047079889
98.6370589097665
98.5852140425756
98.566188834567
98.5016819967547
98.4696855138137
98.6009596696261
98.5249636578076
98.4542428339122
98.4069062675197
98.5006770871526
98.5988501561485
98.6487352835624
98.4622713470955
98.4338384828572
98.644186124564
98.708681310683
98.6619168517866
98.6168881491932
98.5807157213008
98.5481314177691
98.5245905341652
98.5899545433133
98.5515408233494
98.5572515061795
98.6386995722051
98.6124956578546
98.5661934259553
98.5558145998162
98.5291503253711
98.4565686643414
98.3961521394024
98.5817560904966
98.5938523065458
98.6173956854163
98.6406240130999
98.5571224540427
98.5005584492464
98.3620842179639
98.4679363380387
98.6966728758041
98.5723014164293
98.5147497456629
98.6500747215241
98.5807123878283
98.5708608477974
98.668091119654
98.6389822340144
98.5678455157048
98.572007978293
98.5425594503399
98.5034741908489
98.5036730881703
98.4673966504104
98.5207808063613
98.5602042241856
98.5856650865071
98.6298328191558
98.5451384366326
98.5222085110822
98.5569513255682
98.552531117301
98.633175943991
98.5719064180814
98.5294265055138
98.5422758458
98.6183219345436
98.6209082360545
98.5447864907388
98.4183794942655
98.5154250029551
98.6905431755385
98.6974598381471
98.7601344936917
98.6705389897893
98.752841207903
98.7216037680243
98.6294593179739
98.617165604668
98.5973178130778
98.7290487526459
98.7393893662763
98.6773288839718
98.6034903000528
98.4680554479507
98.4349042588317
98.4886345825312
98.6149790798313
98.6808054334282
98.5939454121541
98.5069240342725
98.585891974305
98.6643072117783
98.7020412290189
98.674789955149
98.5324335202434
98.5047015590547
98.5841438732091
98.5823074142614
98.5575575073386
98.5520362071056
98.5900161585245
98.5965319172542
98.6100754321658
98.4621975609666
98.4453295459571
98.5220671528569
98.5781422674271
98.4716058809847
98.1227541916464
98.2800675527635
98.5120596725469
98.4703835824737
98.4170606553889
98.3546996390386
98.2683024381902
98.2820247975825
98.333561250405
98.3095592178657
98.1019403568
98.0571271401196
98.1158493935341
98.0182021251121
98.0273714005054
98.056097610714
98.0555846554001
98.0690095815023
98.0934153893095
98.0011110842307
97.8622473713328
97.8827914209117
97.7915748062204
97.7618885575056
97.7537505054237
97.7193116834965
97.8110089120885
97.7910202776899
97.7562837103733
97.6978555855599
97.6603550959359
97.7438238656957
97.7510327148467
97.6032416408247
97.6945764765411
97.7184190486576
97.7343155266777
97.9027519888592
97.949948883512
97.736541463804
97.5813513086207
97.5745251925948
97.545226828013
97.5909100803775
97.7165040741397
97.7055229652677
97.571295825108
97.4195649161549
97.4596176188867
97.6583409014972
97.7240580188993
97.5729881494614
97.345502612349
97.2581189682788
97.3234247635985
97.2753081372269
97.2486608487593
97.3397689522263
97.2877102780792
97.3547773953508
97.4364300908336
97.3010026099609
97.1970530258284
97.0229540754667
96.8688356921646
96.8904900586903
96.9636534685072
96.911140919455
96.860235268413
96.9561693636056
96.9722359224495
96.9204908195244
96.8591448451192
96.7879713362693
96.7685038201374
96.8455829096795
96.8773982039599
96.7885880723551
96.6199437704126
96.6354278885615
96.7529640382215
96.8461838699372
96.8399802888653
96.6502503769075
96.723777955036
96.8098597444517
96.6441029842494
96.6649140516634
96.818743047369
96.7600646534892
96.6773379071719
96.7054931225192
96.5946808302555
96.5180436977996
96.6037426192502
96.581874540019
96.6189958276071
96.6713812137558
96.5486215460779
96.5755147013835
96.5426449552778
96.4572567961772
96.4830304161903
96.4275567729226
96.4159449672391
96.4994774722408
96.5183130576431
96.4582901866028
96.2996775279426
96.1632211501459
96.1753687334453
96.2238128316375
96.2731796286684
96.3721551954029
96.2900579688243
96.1514352857048
96.2831986388623
96.2211363390403
96.0197127807251
96.1039330128823
96.0522851461435
95.9918312163448
96.0038507735765
95.9101184058876
95.8014619158867
95.8277535957139
95.6938953829468
95.4392691814973
95.4420160661435
95.6703496744893
95.7783285013706
95.7746273209719
95.7690790069627
95.7487173655354
95.6377778597384
95.5524015803563
95.4086028941481
95.3711091931368
95.5280756341617
95.4643243990764
95.4540765755592
95.5648806909971
95.6405729960435
95.605190279615
95.518115135016
95.4641209261242
95.4129679240481
95.4534440106238
95.6433624805941
95.7202581875379
95.7167204028334
95.6946093095388
95.6624162660827
95.756424487784
95.7854401197408
95.6370005525401
95.6157656606936
95.6405293234673
95.5678352730083
95.523427145574
95.5421191902303
95.6108397898492
95.5728540510517
95.4998584042282
95.5679008879943
95.5678143254027
95.5419223489198
95.623921185102
95.7134069618945
95.6495625305434
95.6117295258611
95.7262078282666
95.6819776675229
95.606649616988
95.6150015217201
95.572690299624
95.5361938966753
95.574252087324
95.5782832384828
95.5657665109
95.5696659183172
95.56285742105
95.5086121645936
95.4742656979628
95.5627049598625
95.5841629331094
95.5424492207201
95.5506954883498
95.5759857601278
95.5692032577685
95.5557390718344
95.5310304719974
95.4558708548363
95.4562645123182
95.5090273496557
95.4526320397033
95.5003529070053
95.5292616024097
95.5325415038755
95.6528027583266
95.6583310921548
95.6015053464201
95.505069570173
95.480317308031
95.5811758997124
95.6010452856889
95.556606242826
95.6192005894567
95.6195260196046
95.5957123410658
95.6001530813025
95.634285923739
95.647394133034
95.5551012202059
95.5642134944033
95.6228970036329
95.7019979690749
95.6987219465397
95.6342015072772
95.6744032317251
95.7590069935411
95.7943283166201
95.753488678116
95.7324876813634
95.7593057028514
95.644799611134
95.6083535183779
95.6846773680723
95.7675238141937
95.7927498748816
95.7862484951537
95.7964852407509
95.7821328626871
95.7877501941435
95.7455331582049
95.7895449219758
95.8652288368284
95.838580025052
95.8203544369008
95.8136797908525
95.8209215261055
95.8769143910095
95.938041193805
95.9414334534867
95.9397327628573
95.8935351737244
95.9110578195868
95.9953316745225
96.0391271211413
96.0848082871239
96.067229715395
95.9045586666545
95.9276591685419
96.0359432849434
95.9827916536618
96.0119836859875
96.0421100866956
95.9732255416018
95.981334178192
96.1092982244761
96.1839085391558
96.177398680409
96.1835774612783
96.1366220659743
96.0858206907148
96.2319717243028
96.2847836048027
96.202639860566
96.2017705927511
96.3225106979763
96.3742967600494
96.2665217252358
96.2316116043482
96.3134061172044
96.3279798043915
96.3577865280765
96.3897518517558
96.413343165938
96.4161511972242
96.3996767652473
96.4056965970161
96.4246532609937
96.4214582221871
96.4856312912194
96.467946941186
96.4280056631239
96.41639322446
96.4802279124688
96.5401331002458
96.4809612339547
96.4492839957414
96.5220237894335
96.5483701712047
96.4834549824701
96.3957305202402
96.4661524633354
96.5211360610998
96.4748822984569
96.4989792756474
96.5280845141707
96.548692987452
96.5506920423148
96.5350144673529
96.4804249424312
96.4806453771012
96.5713072616877
96.5945156155516
96.5132639555839
96.3515239076613
96.3111081426877
96.3918086226098
96.4439797188934
96.4761596759867
96.4297124830015
96.4160457752982
96.4600959446519
96.477552142118
96.4616691179676
96.436921214173
96.4326933142281
96.4071299571637
96.3660496847496
96.3459881051327
96.3127558190879
96.2929148779699
96.3301859559125
96.3734361426217
96.4019849627671
96.3798653354566
96.374315316524
96.3421561524709
96.3404656994062
96.3428993962455
96.2787151330419
96.2728321983207
96.3757514483563
96.3933323654397
96.3364361912213
96.4233956731624
96.5600401128041
96.6397953248489
96.6599630966326
96.6404829231862
96.7225407327279
96.8215512085705
96.8819556644389
96.8847663830378
96.8151778157932
96.7894133038595
96.7395231365584
96.6783482965968
96.7133661183077
96.7272132381679
96.6639455613882
96.5907067596675
96.5160368985258
96.4772624026233
96.4491238052064
96.4116725776238
96.3053561984367
96.2680603492215
96.2771936892288
96.1788223842605
96.0698510862434
96.0415929200396
95.9992809718853
95.9744885825888
95.9087188654321
95.7593126989158
95.6281441168651
95.4865656586554
95.3890441340271
95.2629217961225
95.1346748050174
94.9902388832957
94.8213784226213
94.5441530554237
94.2870897296309
94.0696677155371
93.7938886003402
93.444703038819
93.0923114693962
92.7770100810075
92.4337485440073
92.1280882822912
91.7826085892791
91.4523520656532
91.1886314006618
91.0495378923357
90.8972952948761
90.7615254691274
90.6488843882081
90.5294883721761
90.3624196064194
90.1328649570973
89.8207740290591
89.5059051138932
89.1938970827151
88.713429553758
88.1548756165456
87.6645209178199
87.1436239198088
86.6315483050811
86.1706495874246
85.8812075752465
85.8140596447771
85.9263419557263
86.1759667885237
86.6248002963427
87.2754172815608
87.8841132099507
88.4113346249505
88.8834475969802
89.3477555922745
89.7860446552854
90.1105925621453
90.4120530526118
90.6481796671877
90.8067952227493
90.9468909680811
91.0954757955406
91.2214602413539
91.4077328543943
91.6619306646161
91.8668885184888
92.0596887493917
92.3311960774167
92.6136969024761
92.7860863300551
92.8472819019576
92.8561965860149
92.7713033502891
92.6683245948192
92.6415007360446
92.573660588846
92.4599745654657
92.3216410044714
91.989031205343
91.4322557080644
90.8452039329116
90.2683677226906
89.7055125291969
89.3552298659154
89.4194903012349
89.7722072781843
90.3621863963062
91.1978260929526
92.0371174957046
92.7378533352532
93.3719400947261
93.8905737166274
94.2616929714167
94.5378682314841
94.851517040534
95.1632459356004
95.361276499152
95.4725600441973
95.5975168373918
95.7572011204798
95.8384536497679
95.8861934077573
95.9797532680839
96.059724380018
96.0893470379582
96.1122662213854
96.1924982876466
96.3103625897719
96.3594885456327
96.3733129961746
96.4092708814654
96.4314743836733
96.4721751244097
96.5293001305916
96.5779415789011
96.6096437285251
96.6776953093172
96.6764574140438
96.6899730629287
96.7159203273849
96.739156237562
96.7893969428287
96.8150783443411
96.8256854741898
96.8365382389549
96.850323332933
96.8606345079354
96.9059058725798
96.9629810567216
96.8836526799905
96.8644079677914
96.928666850259
96.9467862993586
96.9723875076213
97.0129689248873
97.0070804962817
96.9916930875621
97.0140114718261
97.0061675191937
97.0212822494207
97.0778668377409
97.1086458551056
97.0996380424102
97.0779819730587
97.0369190881904
97.0385894459099
97.0921170588081
97.1361445320896
97.0942127487612
97.1117326638754
97.177519663785
97.1710211544585
97.1846978058345
97.2103164114022
97.1908287905038
97.1589240339026
97.186947212941
97.2474025697964
97.2578616727138
97.231626759328
97.2410441805294
97.2726626371321
97.3096131675132
97.3119836724253
97.2918807429409
97.3371443556461
97.3404945699578
97.3114717263335
97.312855193947
97.3343424701026
97.3648727565509
97.3966924065504
97.3667686494714
97.335920546945
97.3415908546235
97.3680860254087
97.3841631163638
97.3467731319621
97.3049044997838
97.3318289472201
97.3401608954281
97.3247702967775
97.3601072376346
97.4019023470736
97.3615774960135
97.3251037338889
97.32274090199
97.3341359878739
97.3212218089771
97.3136593917842
97.3156523668948
97.3600090190132
97.4124814660554
97.3980324897748
97.406124364525
97.4302480861783
97.3971146294171
97.4020397137909
97.461918860714
97.481797442184
97.4580412842217
97.4231107063328
97.4183287369984
97.4605870503132
97.4586471111685
97.4346590848186
97.4657753196588
97.4863957366299
97.4771082048672
97.5166041844603
97.5518954471308
97.5262791883259
97.5986126136868
97.6471964165718
97.622868339111
97.6565379502431
97.6070800546245
97.6049900397117
97.6562404476128
97.6487028659771
97.6638559020437
97.6861309672909
97.6674120765422
97.6728759459348
97.7853642763849
97.8466814060947
97.7965613890346
97.7781830315175
97.787498230055
97.840410459062
97.8571026881013
97.8307643130172
97.8303388580239
97.8028242270874
97.7972216032856
97.8613521685767
97.8331786931881
97.7974411726561
97.7917144391911
97.8650465313342
97.9216650600703
97.9623284836113
97.9381937921874
97.8790470550372
97.8495265751454
97.9404652840112
97.8788892391152
97.8436732472096
97.9169107365311
97.9387086514989
97.9725392773634
97.9280975651833
97.8393093756343
97.9013955833713
97.9925586498023
97.9570027855981
97.9013953756995
97.9282006803853
97.9383466880392
97.9121862008373
97.8567174564
97.8958764532155
97.8747685221781
97.8787117955413
97.9147825394959
97.9672813908977
98.0056543639784
98.020663706439
98.0103317944693
97.9869619496134
97.9172650055617
97.9277358258263
98.0125139690354
98.1389668688778
98.1481402298278
98.0761058491626
98.0719663891625
98.0949880329105
98.1354719262176
98.1300542290157
98.0831317331455
98.099905098479
98.1403262181089
98.1944140062137
98.1815069407159
98.0998630686361
98.0836838009292
98.0455263556529
98.0638859122118
98.1079901166788
98.0239039215647
98.0632946028696
98.1778421990062
98.1968135326797
98.141517330567
98.1378665982826
98.1128647279176
98.0559455320979
98.1376149491197
98.1834038338833
98.1705630186145
98.1696407379893
98.1495074159308
98.1907565487663
98.2177619172532
98.2134685033927
98.1887089086269
98.1540195392086
98.1655610448915
98.2074797516617
98.1667985920328
98.0988582289371
98.0475748665341
98.0960284169501
98.1287014616618
98.1395644396222
98.1736137450923
98.1238731790134
98.0839145354808
98.1318343122198
98.1406712785769
98.1108164296223
98.0664865934325
98.0608733695582
98.0806170981223
98.0646810486073
98.0149671542375
97.984745055485
97.9445533587379
97.9284065655838
97.9910846362911
97.9624886093818
97.9197216090551
97.9198404679539
97.921990240519
97.9499022101911
97.9542458416248
97.9726152610303
98.0228230874396
98.0013579483643
97.9171605613423
97.9752587268923
98.13066734782
98.1560518176502
98.1855327828172
98.2242189231261
98.2312944286532
98.3135222895903
98.2694983571575
98.2091258414443
98.2378294491389
98.2047973463982
98.0946084200504
98.0719831605104
98.1228321639313
98.1349551718191
98.1001895277716
98.1127419732622
98.165285511612
98.2221313014482
98.1984231816531
98.1610624682292
98.168947637452
98.1880262535931
98.1514677165585
98.1190663032174
98.0445285005337
97.9985651209478
98.0034740284937
98.0094822410065
98.0741076812656
98.0974950582977
98.0973891354848
98.1149666486624
98.150676709832
98.1921783378384
98.1876306002448
98.1988838557681
98.2216015459076
98.2097003860692
98.2306318986395
98.2106211319283
98.1961293779476
98.2353082866996
98.1854565355523
98.1728389144391
98.2281817904579
98.2019545174272
98.2285748670648
98.3629962720659
98.361256914628
98.2948763338838
98.308713786806
98.4460045619393
98.6122773259343
98.6812509510728
98.6076735497722
98.5288332719341
98.613971977698
98.8681816658218
98.8244762687554
98.7161309827123
98.7245065748244
98.7272300763372
98.7537127923602
98.7481627363435
98.7773998916516
98.9514406659836
98.9536599943024
98.9316497371043
98.9237345695546
98.7442122281162
98.7389095465047
98.800708695716
98.8152806330318
98.8889563395926
99.0446020907034
99.3017575801115
99.1529535870898
98.8638297515013
98.9881290211518
99.1131302272528
99.0217744604609
99.0308772748995
99.1361669390582
99.2715779960496
99.1746088682846
99.2271368398253
99.341162950132
99.1765994742664
99.1621037111495
99.200689946103
98.8922960937284
98.8350262661414
99.2501961394151
99.722465438579
99.7080616618913
99.5837722537116
99.3870075415218
99.3435171164431
99.5868887357375
99.8573882191493
99.6515563644322
99.4427260602725
99.6126030540814
99.5837345614534
99.4572741619842
99.6511317023351
99.5483917618284
99.4181709663113
99.5410861710084
99.7019325321556
99.5437305898716
99.5440475037828
99.8216656962547
100.355370063368
100.144388829552
99.8320780534136
99.5768872879152
99.193377348248
99.1261482310931
99.1529071073589
99.0867238560158
99.1401658145777
99.1444200919142
99.0496507845436
98.9987678915342
99.0021362132233
98.9030410197553
98.8058717176677
98.859398205875
98.8183415395009
98.679483597985
98.670784338596
98.66434620803
98.6156407268014
98.7247898737074
98.8153089347275
98.6490318227579
98.4433603510704
98.415584879137
98.701936240976
98.7094234781261
98.5996009015086
98.6111811225419
98.5732751678755
98.5542775975097
98.5706260680506
98.6322696253402
98.6996606705801
98.6801464352816
98.6589127801765
98.5978312800657
98.6593860892653
98.6821548786202
98.6874424253212
98.6680407788624
98.5878602275142
98.6745679084637
98.7443463561748
98.5682171988894
98.5717072019661
98.6972922733704
98.8235544198112
98.8945483983066
98.8245658849952
98.7627890884851
98.8614615258245
99.0417345280125
99.092000863671
98.9332578803837
99.0570198890635
99.0764965393224
98.9790656113913
98.9502720499681
99.1186038535833
99.374275617878
99.6584884080212
99.978848417594
99.8749909698591
99.7787212230478
99.8558842308079
99.536051772117
99.5671673943873
99.8306795721089
99.6711350980035
99.2728690384378
99.2770913159661
99.4152468009437
99.2945283011918
99.2976489958047
99.6257254861705
99.4294373836991
99.3045774938582
99.2221844655436
99.3503597233642
99.4925359154863
99.5634103165719
99.3648307794783
99.1396514938012
99.1011644039469
99.3329618932263
99.432259100224
99.2047909268995
98.9561611297399
98.8604487218879
98.9263835427121
99.2022916078569
99.1768337592535
98.9563786711968
98.989186465755
99.1795228917908
99.0602593184124
99.1318249254838
99.3435865191074
99.2205908489808
98.8912196395716
99.1300751378107
99.2743509101673
99.2234469926225
99.0995988996191
98.8529081273563
98.8180682804229
98.6680333223101
98.4632096917964
98.5873690002709
98.5914243107178
98.4490267671116
98.290521369446
98.3556598519609
98.4135538586583
98.4795749660173
98.6144591902624
98.6095987221911
98.3823679553369
98.4136703884632
98.5294289883811
98.4875892807505
98.5941447147896
98.7880195557015
98.6251145230126
98.5230398140941
98.5793926682876
98.5332615281433
98.3744392855779
98.2910372161707
98.3598482928677
98.5550212788906
98.5820901567102
98.5222080585372
98.5041116612471
98.5822595283394
98.5576653867173
98.6003935151043
98.5684532649368
98.4857938799887
98.5023258978644
98.5397950133782
98.4813997913965
98.4641210374689
98.5128897562079
98.56874444541
98.5071582124083
98.4636183754258
98.5164999660876
98.6372902459606
98.6973597918647
98.6903562567156
98.6531745398244
98.6254795150733
98.5831201682435
98.6239817230101
98.5788217978967
98.512020851614
98.4384632839774
98.4712568082468
98.5133341862873
98.5031850152983
98.4827360721878
98.4646300618093
98.4384233444523
98.452096840647
98.4109158580637
98.3887921919244
98.3250840431722
98.2294680193062
98.2249343957511
98.2207214925191
98.1772796507046
98.157075978185
98.1206399913079
98.176205272774
98.1758291033902
98.0978671815252
98.0829883847453
98.0409407927904
97.9835584161446
97.9742578221755
97.9601032602026
97.9601854961533
97.9418915192518
97.9374580710086
97.9484385712655
97.9646144004171
97.9408111777089
97.9358277252285
97.9685858093595
97.9988266839815
97.9644791747233
97.9208050827572
97.904467096743
97.9424210235022
97.8824116573922
97.7859952252406
97.7838187814434
97.8005820854086
97.7530148596503
97.6899066184023
97.6810944217955
97.6447726139484
97.6239678244455
97.6439537402034
97.6490456678461
97.5545406862551
97.4502382483973
97.3659502165274
97.2566984914351
97.2477409774544
97.1904453635987
97.0034522275233
96.8219438267798
96.6417485918818
96.3393290927098
96.1638589149955
95.8514516722696
95.3298812468923
94.5879894854212
93.7855651576552
92.7840051646152
91.6061753141024
90.1108784346226
87.835579307947
86.1980300622252
84.9257110297825
82.2014286629762
79.6844666071481
77.3660936451295
75.1746729252424
73.2124796560878
71.2814012725828
69.2859453915021
67.9165812932783
67.0224754842567
65.8905864037067
64.466561328427
63.1761135605761
62.3750677804142
62.0020314810028
62.3575037406131
63.8333764600158
64.6612715784196
65.6067827617463
69.2665433219683
71.1394994905135
73.3925900961742
75.9767604574506
76.9828102265857
77.7969365298349
78.8658486057237
78.8531839216645
79.5160247060606
82.1156419190264
83.1566261836607
83.1751363626817
82.9388397922188
83.4972826226825
84.6198513956723
84.802751586733
85.1940371230488
86.4278185435512
86.9082428740006
86.736560317892
87.2167099712272
88.067351259811
88.4339320808968
88.2250036091549
87.3447178740126
88.2409340531115
90.304973822586
90.2539021674236
89.6227361553732
90.2079430573427
90.8270035128532
90.8544641711374
90.716882956034
90.4112610850129
90.4071573001302
91.3035317970932
91.7579933398385
91.6311360937318
91.5343926144617
91.6621756931129
91.7867791264397
91.9820200861015
92.2712493450133
92.197777541932
91.8629928547773
91.8522017053953
91.9778970572061
91.9031794902433
91.9040247584502
92.0940482413046
92.3236992626154
92.5157464966186
92.7012168144346
92.895108470889
93.0693634982732
93.1771483092805
93.2587550651997
93.3611303703487
93.4347720690129
93.4613541168261
93.471512310945
93.4299827908544
93.1487177103914
92.5123001817643
91.6023746162287
90.7273226811604
90.5048844442064
91.3477752322126
91.9566760615634
92.1975107369104
92.7004239159699
93.3044848496035
93.6587070095731
93.8525409077167
93.8204046680408
93.6548374034561
94.2501548394805
94.6652179185813
94.6202149202852
94.5554305044345
94.623695392456
94.7395667334473
94.8079850313285
94.8040761346955
94.8840991575662
94.9983229530553
95.1830946397078
95.2621142877662
95.2261027200077
95.1185277240185
95.1415948267436
95.1406638171624
95.0746036344433
95.0806651454534
95.1356704988065
95.1807600244628
95.2964718535413
95.4766064736986
95.5036120714415
95.5019920705246
95.4768965017192
95.3126098161276
95.0494598085117
94.3138053087475
92.6752410912316
92.0905624194398
92.4905341428244
93.3923730494097
94.3671335500655
95.2289903399286
95.7927726909056
96.0418939871877
96.1297188252293
96.1843196191852
96.182731041535
96.0930164826799
95.9741908695902
95.7739206260075
95.5046060350406
95.2131289800764
94.8525469957183
94.5354503467311
94.0652329663231
93.4878035461493
92.9080012160089
92.3653668743222
91.8650512430412
91.4340700866478
90.9937931593324
90.565129179439
90.1664164614416
89.5990316670016
88.9627060000052
88.3884759610357
88.1789541674328
88.4339662204198
89.0316780009569
89.6078424513602
90.1362794464348
90.5416507452909
90.7746355864494
91.2607228980448
92.1349709944308
92.7295428198361
93.1743767310741
93.6784329378415
94.0938782229578
94.3479252575065
94.4777308855992
94.5819264854083
94.5584964279378
94.089152128904
93.1920990587594
91.640234697124
89.0896741875236
85.7711613961808
83.0425714941527
82.0467707174365
83.0573116490364
85.0270958850544
86.5493823729931
87.8155741911715
88.9319622087004
89.6315232537784
90.1168078087557
90.4544073010238
90.6288781580547
90.7794063204024
91.0269352966595
91.2438387640941
91.2917806208816
91.1843240369845
90.8781473269717
90.4308195955266
89.9703802910839
89.582589772203
89.3143865744645
89.218530326952
89.5230191810838
90.1947448841183
91.0865181911848
92.1581010654707
93.0137926074795
93.5059678532004
93.8318227743022
94.0537298146241
94.1690388828206
94.2118807427262
94.1974286090915
94.0663027391166
93.7945463039349
93.4136878984541
92.9824454819033
92.5964438711208
92.4847649638201
92.7173717262628
93.1653801182681
93.6196189995956
93.9201861915346
94.0015706918088
93.8800522522765
93.6120183268999
93.2254495188812
92.7868007483909
92.3259338923388
91.8490640214995
91.4442535597769
91.0966720631559
90.7392434868197
90.3281605593555
89.7836746266001
89.1495427336945
88.5381779529281
87.9296355181478
87.1761708989374
86.1610846556202
84.9003708054723
83.5000974766826
82.1082925049463
80.8478840730233
79.7641084276482
78.7775268121172
77.7782077161852
76.7184810912377
75.6247135498457
74.5165827382253
73.4236061025955
72.3622464323209
71.3274715945717
70.308154329462
69.2772775657162
68.2179068783139
67.1132768162925
65.9248190474682
64.7412025129356
63.7040597917697
62.9078067964899
62.4036822344559
62.1339853842695
61.9402578281725
61.6630283073735
61.200780506851
60.5545525040033
59.7694924648926
58.9031333114454
57.9881472435379
57.0825987656003
56.2840189302045
55.689190223887
55.3605605014902
55.3658747913598
55.727190185204
56.4612933401065
57.5727848264492
58.9970159084775
60.5748908885002
62.1355960684963
63.6087253038839
65.0730217729566
66.6019269437172
68.1563961081844
69.6657317803526
71.1261836153828
72.5218871029463
73.819875278466
75.0241540248349
76.1680394039119
77.2582900742203
78.311988113251
79.3207034980591
80.2976510763307
81.2557631359745
82.1861329125416
83.1028719350849
83.9912999185065
84.8066621229999
85.461550857983
85.8737016349647
85.9912994132631
85.8178242946706
85.42763805655
84.9488204160624
84.5756111542817
84.5254756574396
84.9757525070555
85.8655694456685
86.8937804224789
87.7640270060525
88.3980527608234
88.8432676805642
89.0919637038356
89.1335687286221
89.007421552456
88.7345889181347
88.3763570762001
87.9537004586024
87.4106889068239
86.715185995891
85.8603244739228
84.8914711524955
83.8952009978791
82.9021597800348
81.9088699259931
80.9199535227641
79.9023250106547
78.8262986677202
77.6391682144184
76.2329675014627
74.585867108687
72.764247017541
70.8795643034751
69.0911165341386
67.6213178191577
66.6526759682632
66.3448730840738
66.7503011715543
67.4932712808737
67.8229159431311
67.260518075522
65.8932675374671
64.1205835156874
62.2849871691488
60.5726038780916
59.079168399972
57.8391023739823
56.8828246513041
56.2787666765998
55.9681279459109
55.8194462589546
55.7832338598742
55.8125626848535
55.8700298607037
56.1011289318718
56.6810415115492
57.6519078020463
58.9358447258708
60.4147569454554
61.9184525391403
63.3857881186475
64.7909306929117
66.1437206564559
67.4434749006301
68.6869121939206
69.8668114548751
70.9275670757995
71.8099996205926
72.4601919976392
72.8401470040302
72.9615745010988
72.8612950604194
72.6185910136778
72.2777532436984
71.9585440184294
71.8160738308241
71.9295003652079
72.2551115414174
72.7341150848263
73.3344287964714
73.9888786334005
74.681703518523
75.4671193760325
76.286718300426
76.7811051909092
76.0591827131075
73.1569543192066
68.2655435398033
63.1990215184504
60.2594661436115
60.5102809884528
62.8844289314778
65.6521145337992
68.0894542090962
70.1774074220317
71.9164305797347
73.3220369785222
74.5269875151312
75.5872932115061
76.4685896093977
77.1973033589337
77.7701096491611
78.1642661654277
78.4122498093934
78.5915635338931
78.7419138496978
78.848354601163
78.9178119744543
78.9333196734339
78.8057765732082
78.5036745396456
78.1051023326007
77.7361055229851
77.4558960022433
77.2887488570717
77.2644802360967
77.3401434306692
77.3940414244834
77.2960146989459
76.9668797313286
76.5350208396405
76.3278567721507
76.4567609146696
76.7502047470301
77.070338381887
77.4161967375185
77.8756850292798
78.4959403083422
79.215590096544
79.9383943265009
80.5893822958211
81.161998694714
81.6516585972986
82.0140538961829
82.3227953624746
82.6462566418651
82.9764958611138
83.2712762166082
83.5372967151586
83.8550472283528
84.2005607557368
84.540308908347
84.8736303562124
85.1253862893828
85.2877965758921
85.3871720390342
85.3539409688279
85.0782763006566
84.5686946198093
83.9287488849906
83.2693175258473
82.7730349047112
82.508451144836
82.3865415517465
82.3496935980863
82.3950797206619
82.5018285927299
82.6102365106167
82.6425562186554
82.5221187969872
82.0861920513824
81.1413077210182
79.5498669787393
77.4516553136161
75.1432129585342
73.0938077110466
71.9661497566898
72.1639772963416
73.4515134514412
75.1690090966398
76.853945202318
78.2912189063943
79.3835039664234
80.1224774382922
80.6102798840679
80.9117948648699
81.0589508035549
81.1409487679351
81.163337639311
81.1180877399269
81.0996842963734
81.105068606048
81.1286191622775
81.2600852293152
81.468869788852
81.7413038498556
82.0610217906255
82.448341563305
82.8209699787589
83.0867630621677
83.2916701111268
83.400076254199
83.4464783459199
83.5625842743778
83.7176040616249
83.7751081497364
83.7683134029076
83.7871148988101
83.7968979565002
83.757116584936
83.7684878705262
83.8005794575944
83.7665240454153
83.9107842356371
84.2820486950338
84.5755798130125
84.1304492660861
82.6182773957199
81.2765931940533
81.1985527838281
82.1205650358014
83.3908663615979
84.6768388292296
85.8206281922856
86.7449911776794
87.4572539915172
87.9800317986024
88.4312107237492
88.8503332048553
89.2307260379594
89.5963935054506
90.1181475043516
90.8059151373446
91.3822086801747
91.8086301801958
92.1886140191102
92.489068922913
92.8116291036328
93.2098133893869
93.474501682719
93.528770323212
93.4540069659941
93.3855012957997
93.3412111617892
92.9110995740231
91.9103857774068
90.183378672689
86.9153689122924
81.9506545874635
76.3753247060567
70.9478983563276
65.6917643627761
60.5352621556716
55.3850665913073
50.4209896855258
46.6201831351108
45.2083626615561
45.8535445756487
48.153738279489
51.7100008241972
55.6034240532733
58.8994624943751
61.2909139755669
63.0824507338348
64.5533866841785
65.7249575970637
66.5951876572259
67.7354344593319
69.2944902489351
70.676260786673
71.9612340904451
73.0941204233545
74.2112990576526
75.06751577647
75.6506769113852
76.1440110443586
76.3144568136015
76.6767150366554
77.1299244878994
77.1459797644608
77.4270044189149
78.1883245115247
78.9229659547618
79.2609765661116
79.0857553303621
79.1514636150244
80.632370610774
80.8389958994341
80.4494628102108
80.7211121226781
81.4008496418498
81.8503824704587
81.7665822074275
81.8787643035956
82.2921243965263
82.333095508369
