1798
3999.43349933624
650.420452594757
1
128
4
101.865710311645
101.950514871267
102.01357912328
101.894063720714
101.748128608837
101.810281933459
101.913203995197
101.96495324998
101.878051717853
101.835984007045
101.83728122287
101.855067093361
101.837892209802
101.789852757632
101.786451598849
101.793884554061
101.778359625239
101.792169499028
101.828763475234
101.84336203666
101.882560050199
101.921157963667
101.931924078858
101.961763932251
101.922342746895
101.767808713824
101.667505945065
101.586627966415
101.648889026375
101.586016524816
101.656294562129
101.817960777171
101.816063834255
101.858041228665
101.669438194566
101.460274060015
101.545998772789
101.756186354098
101.875263410308
101.592959760464
101.616789830663
101.476946281727
101.474820378234
101.465826523889
101.583618653005
101.710462060668
101.797277511851
101.882506011612
101.850206254805
101.641536647487
101.344112787302
101.440705391716
101.375736717628
101.449811033525
101.670919633618
101.686614897917
101.731573365621
101.454321082189
101.465044856653
101.562522037995
101.391062103286
101.647136733635
101.449567344629
101.349059043873
101.58904550896
101.725558175842
101.314008390661
101.570198632492
101.324857104819
101.251195994421
101.519955534629
101.216704475541
101.379414852827
101.301132316672
101.653256892901
101.491381938176
101.425202667861
101.022673688476
101.333635874951
101.514310100819
101.679129572052
101.707566749557
101.591561041986
101.346918932134
101.226062649887
101.092089474998
101.176186636616
101.220490084417
101.446476516228
101.418324045767
101.631549114325
101.599005020854
101.530669083383
101.594542925024
101.426270044127
101.092895236529
101.479130549926
101.22274888449
101.474300140054
101.586839340204
101.590057696481
101.75864870543
101.40152379387
101.496963160396
101.698100598551
101.257589295414
101.511363047975
101.484742045777
101.420293408174
101.620612045671
101.669830607791
101.764916938422
101.733443496984
101.760843113898
101.649533556974
101.649448193649
101.639918681699
101.421800342858
101.630092893996
101.625824152581
101.721259838403
101.779158420222
101.494677775401
101.490368554587
101.346438307665
101.41740021953
101.764100443293
101.367378697503
101.335710890522
101.253717646701
101.421678583385
101.176079304785
101.268261699357
100.871755752189
101.164564051313
101.092569320882
100.927131780042
101.443978454989
101.148122124401
101.586486076441
101.186276689289
101.030779480806
101.032616726952
101.312550467841
101.463035355737
101.170447176974
101.310576165775
101.293619239782
101.230272618083
101.431127246744
101.429682372061
101.649556788752
101.474719805751
101.345772581085
101.387598160807
101.506233904192
101.646443362124
101.837809548451
101.660700931643
101.495745518206
101.712291866819
101.770680118804
101.788430154089
101.754856224171
101.434625730664
101.302217857875
101.159369217345
101.516836748928
101.350394127737
101.636465096098
101.521288353091
101.472230544631
101.275368268277
100.748020940801
101.372023015722
101.150581545548
100.927668405345
101.16054638388
101.331826055494
101.436884739686
101.442725208272
101.398576634169
101.427678794362
101.038932870817
101.232603284578
101.01940821848
100.591608068087
100.397011833694
100.272909565264
100.927795831844
101.068070111251
101.153363283657
101.096078295636
100.939956820116
100.969859970122
100.819633702175
100.975134288916
100.47327002207
100.471328502936
101.076297768152
100.92883657041
100.989679603553
100.907996662205
100.734056761115
100.742126926678
100.824433737363
100.392276842483
100.62513127454
100.690212106737
100.841143227794
101.187267880125
101.315036268716
101.094129271011
100.924376999849
100.971838114853
100.956584983665
100.950773939779
101.039119802244
101.136728870493
100.817134845627
100.463096904316
100.877178139515
101.171454830722
101.172202529975
100.937498991831
100.827695495241
100.803174782846
100.991203988109
101.036353642078
100.913714962438
100.557685782097
100.306215835739
100.540120420809
100.691377786825
100.77567534983
100.853902657156
100.631614190854
100.583745425925
100.697173465742
100.65338723375
100.591087106364
100.558971874791
100.636838235872
100.711308120657
100.83494375122
100.89128053108
100.755664208336
100.67117198829
100.872745023761
100.955593275294
100.608764488319
100.457250236464
100.453682028585
100.423115367322
100.45194947161
100.636043055427
100.603179397317
100.746171743696
100.834767915096
100.72408093488
100.858116103514
100.957146974111
100.805789696731
100.777359028725
100.744627764957
100.679406260434
100.559852964769
100.592847357171
100.781436248363
100.901551501072
100.909501712082
100.774808539304
100.681831867786
100.649676624299
100.723009217843
100.783205203155
100.650930164463
100.497188349253
100.572070404268
100.71181474806
100.710802948751
100.657844119524
100.525331125042
100.538921101113
100.617386243835
100.64869178669
100.775856990971
100.754083398109
100.621454963504
100.622747145895
100.591951051387
100.462235510268
100.458076547281
100.406705077712
100.334127283878
100.245264448297
100.252378811595
100.222100007585
99.9854005626634
99.8301485516333
99.6730755066875
99.6946132251213
99.9524961067794
100.141895975105
100.135876231162
100.194436486166
100.187053454453
100.070620053831
99.8867133249778
99.6398927589008
99.6809524906719
99.9521730000484
99.9359634836875
99.8443138121322
99.8153184391151
99.9658422957527
100.035977186889
99.9725022454963
99.8564469546867
99.8334653343053
99.9980010201825
100.221854219821
100.218556851021
100.234015127013
100.120577548781
100.192442240355
100.340605110808
100.172405675244
100.008426932768
100.044950710211
100.122189065801
100.085763585194
100.033286210434
100.100237466475
100.141425350894
100.11718762425
100.044895323292
99.9634513118009
100.068141905113
100.185824995221
100.143700777967
100.149785452046
100.099622619539
99.9978351064919
100.000522671433
100.052177221988
100.102963665834
100.141866727778
100.134019018542
100.113318425763
100.091942346297
99.9927849947302
99.9149128420126
99.9643541141057
99.9422048416387
99.9236355927139
99.8524293373814
99.8770793064946
99.9115257631889
99.976738051246
99.9928527685548
99.9351415992269
99.8633253927155
99.8868276782348
99.8724496733033
99.7892515202753
99.8224200161752
99.8447655353951
99.8041481744335
99.8059717925051
99.8100408464466
99.8215503014677
99.8229965115434
99.8200111005008
99.8586898897297
99.8236008262013
99.7304345393761
99.7846151741044
99.7636966357795
99.7026632963352
99.7002659730174
99.6832496291709
99.7074819569295
99.7463036169073
99.7155404987203
99.6681889504046
99.6671761270256
99.688209003329
99.7100887925333
99.8327091256324
99.8481306630632
99.7359253690885
99.7305125554066
99.8184208837529
99.9107116815099
99.8871540702193
99.7878426100718
99.7482592314724
99.6650611662748
99.6783607335353
99.7430731665143
99.7708645893652
99.7846213211912
99.8079238067239
99.8239152358906
99.7298650284622
99.7256343249445
99.840231253884
99.8745746105723
99.8287975819888
99.7819085078522
99.8092970114413
99.8636714247088
99.890910180382
99.868034341078
99.8800395366851
99.8352297813698
99.7743341165188
99.7341703072874
99.7428961742614
99.8163548999925
99.902113641626
99.905275342067
99.9073794810459
99.8551003862217
99.8827060933422
99.9136153947659
99.8645460031053
99.8754349057329
99.9263144606694
99.9200748175572
99.8886289116355
99.9394785875171
99.9959764194112
100.019988051641
99.9726621166266
99.84571833795
99.8842314340462
100.027057930743
100.002103015686
99.8982490654743
99.9387450358093
99.9894090820106
100.004070774784
99.9854994030832
99.9521788580852
99.9741624765607
100.039922055554
100.054699080403
100.063319113
99.9894730664932
99.9093802203339
99.9213223053556
99.9572738693544
99.9854517319498
99.9807410738205
100.046631904723
100.063764607392
99.9508007390685
99.9524681879619
100.013886095445
99.9970848471753
99.9890726291065
100.045401090436
100.019593267407
100.046414316484
99.9944277960283
99.8798331178054
99.9154380002245
99.9586560872911
99.9450525960346
99.9483631812482
99.9399153433132
99.8968288700069
99.8980429632691
99.9182353010457
99.8709135410532
99.8550518174576
99.9276936515704
99.9349340289208
99.8791918340394
99.7643251933467
99.7245061108378
99.7762582536967
99.7805711437606
99.7819725947216
99.757075853625
99.7777845654301
99.7837224358264
99.7445061384592
99.6422779912962
99.601534648529
99.6206368053226
99.6502700384324
99.5871104279899
99.5971635382065
99.6089284217762
99.5343288035073
99.5214933221121
99.5415388041596
99.5532699521291
99.5279657492995
99.5164933720385
99.5218789270981
99.5289934902438
99.5707405398596
99.5176482708443
99.5055839184646
99.5868051557519
99.6021621795584
99.6230617335096
99.7185084060506
99.7858427297961
99.8430699797978
99.9079122609414
99.9309214928476
99.9694040152408
100.052399560588
100.096185293278
100.0995797399
100.013117191388
99.9502290222125
99.8974579270747
99.8584826538702
99.9169571322072
99.9741963598834
99.9498095826197
99.8711313152533
99.7804311925305
99.7777652111055
99.732023099671
99.6637528765818
99.5844646566547
99.5392945589119
99.4898671231745
99.4022227149548
99.349272499201
99.3499433196602
99.2646736534847
99.1303536430829
99.0788723996319
99.0034127156168
98.8633369314819
98.6577208420375
98.5356222977725
98.4200497144327
98.2873817987919
98.1744647335017
97.9953378180816
97.7152149231879
97.5625482824004
97.4151155259686
97.1481651665262
96.8499575342285
96.5984765706334
96.3729889116939
96.1376126883161
95.9073113718391
95.6040147642722
95.375329654046
95.1762315258545
94.9797702639641
94.7651798078158
94.5937736923164
94.442735537984
94.3307863008767
94.2661013067134
94.1520225303347
94.0344679570138
93.8930107223761
93.7549227563724
93.5989066166738
93.4350255401693
93.2933948145985
93.1626427137366
93.0718446300843
92.9938108235852
93.0452428402111
93.1347885983018
93.1949072298499
93.298184387478
93.5230167238845
93.8462148150196
94.13958357024
94.3609655441054
94.5396528567703
94.7464803639866
94.9782660888477
95.1694466254267
95.2677162081045
95.3194670277809
95.3819778828803
95.3832204123298
95.4030157259603
95.4632398340486
95.5886167603543
95.7408185744644
95.8703218842845
95.9979496395376
96.2307208891736
96.4493934012886
96.5888634687716
96.6667580767047
96.685319673697
96.6353799141392
96.5682247308226
96.5132654675759
96.4545691921717
96.3303258841677
96.2241696737339
96.0747963885486
95.8421544024453
95.5636104582091
95.3561948158234
95.2214285888433
95.1750767874715
95.3290864914218
95.563004926402
95.8467545154125
96.2518873384689
96.671190379709
97.052553405377
97.3984491194406
97.7142104372186
97.9328105580867
98.1487454972537
98.3936357750822
98.60069988091
98.6892084277645
98.761494720572
98.8733318393508
98.9717438916583
98.9879241694626
98.9875699015207
98.9981658759092
99.0545320379057
99.1248968633683
99.1060941587497
99.1155529231998
99.1853663788981
99.2325815446882
99.2639280902307
99.275404062291
99.2651222598202
99.2992896164043
99.3689300488108
99.3981506376514
99.4258437030005
99.4684537762674
99.4466679486723
99.4558851053149
99.4912150869446
99.4935730874128
99.5172336702814
99.5382442150881
99.5612931190361
99.5363168779762
99.5694218774101
99.59922338022
99.6150409994126
99.6254564641769
99.5817610204644
99.5670779341805
99.6098819300554
99.6206977534887
99.5859897024871
99.5698279678757
99.5924834499906
99.617032513109
99.6664939487694
99.6896745763824
99.7015330809353
99.7554246962927
99.7598652662509
99.6931737940012
99.688365704553
99.681478866702
99.6870330952463
99.7257596577391
99.7801404266331
99.7831930786321
99.7548984634163
99.7984885373472
99.820641483701
99.7869893119708
99.7850988046404
99.8225064153922
99.8186437356703
99.7726183954944
99.8092389281278
99.8609878974636
99.8699537804212
99.8823372470789
99.8919415050688
99.8838873915426
99.8984688223546
99.8948210313584
99.9489790886377
99.950967079646
99.9053922278001
99.9370191060678
99.9349488792075
99.9188489163252
99.9494034337069
99.9264945633746
99.9129699038864
99.9426087808697
99.9567623949116
99.9521312362588
99.9287296358403
99.9104223385863
99.9001527842148
99.8819514687482
99.8944142540086
99.9148968214642
99.9290259391135
99.9191868413396
99.9120247433808
99.8744091036991
99.8602754933315
99.891579306093
99.8807627569795
99.8520036798542
99.8931333498444
99.9533157971743
99.970069816676
99.9729465504208
99.9935692151673
99.9848741418104
99.9673162894241
99.9945077632149
100.029195295741
100.011807434775
99.9839419318117
99.9470335748278
99.9772276256285
100.002400363892
100.002204677579
100.073077817184
100.111708625656
100.056893537201
100.061761216098
100.10112819305
100.0983637594
100.160789453755
100.197395001643
100.150386581116
100.155570418909
100.148520585181
100.178363296506
100.207751357523
100.248826408918
100.234081038348
100.221008937087
100.288931049162
100.307501871157
100.293932139559
100.310764375504
100.313306867857
100.33783529773
100.358637840717
100.335771800111
100.293731986651
100.253842018226
100.31019492125
100.392228917906
100.329115845949
100.279425889497
100.277967163808
100.26473224968
100.264704640068
100.383550576345
100.390057167556
100.414361854901
100.40748508228
100.363343387383
100.35680408561
100.309887700691
100.228416836859
100.297626661433
100.311584034934
100.327130502578
100.388168073668
100.370558114253
100.288576664587
100.330166611785
100.355267011324
100.324085784981
100.351290331897
100.314656284071
100.302221096802
100.362736535279
100.320362550193
100.304077956698
100.24982585858
100.265744732259
100.220490188616
100.280594160611
100.35338930841
100.322511904227
100.304958393539
100.332956315796
100.280779203652
100.265520128346
100.36487846916
100.420675793846
100.355918409175
100.351303790654
100.418114467324
100.442826905064
100.434329578072
100.481582934897
100.43176169619
100.413688799352
100.441597298274
100.46396408745
100.449219405132
100.437368236397
100.438580164708
100.394379351124
100.367897437531
100.367449123378
100.308483539887
100.360879544222
100.44594827646
100.459454713461
100.408664926078
100.341938359311
100.321091124299
100.376260823523
100.470781152843
100.414510641033
100.374052071562
100.407355787743
100.436045236555
100.482261960827
100.475622620565
100.474801553334
100.421012536374
100.357083491131
100.307868512061
100.318245752969
100.357388835718
100.353729337126
100.352847135641
100.431571985633
100.42417106033
100.386203326721
100.33076975812
100.291307262525
100.335205016009
100.39491174913
100.285227772706
100.270183922968
100.289192206234
100.232538424676
100.183562561015
100.157904808756
100.13903077168
100.089904198138
100.065957618581
100.117647406343
100.149708550995
100.135020436259
100.106105001783
100.040181609758
100.012048576607
100.011754167265
99.958794208272
99.9389491140243
99.9029646670189
99.8214950525316
99.7103665708085
99.8588408047448
100.399120285689
100.471098386941
100.332072240302
100.458935696732
100.399750703939
100.428122330404
100.397185974781
100.483653498936
100.48906118796
100.458944301059
100.317770768655
100.15310365634
100.280362358625
100.423083991026
100.465299241855
100.486462445231
100.51193937995
100.422945776761
100.173024534592
100.266144203912
100.481105129115
100.268721718835
100.17007376038
100.222256650674
100.112910932508
100.083048668435
100.027605338042
100.036993053052
100.066470517725
100.162388488631
100.161577570064
100.146999366314
100.166689664815
100.239099490071
100.248844065649
100.294647856856
100.314112485548
100.33386693224
100.379077181712
100.357667431332
100.239650662074
100.262831245541
100.284128487579
100.32703513488
100.370012193377
100.357920828216
100.404142475118
100.507715977967
100.492369896347
100.512150726241
100.496674451161
100.654152986407
100.841756207575
100.912622470825
100.855697731932
100.798378064154
100.835911707169
101.050673356343
101.084379790286
100.984304468929
100.887209426306
100.972343871578
100.99423908265
100.959771173991
100.894440658275
101.143682216504
101.246415176083
101.250217821038
101.199605111215
101.113669672701
101.076838444164
101.07850369529
101.069640261606
101.183835567055
101.35970633758
101.431949560925
101.211424542796
101.126670617679
101.263771245391
101.415275615062
101.342231026964
101.487275036489
101.585747800876
101.647058879761
101.669988368454
101.810888540555
101.747326979437
101.746440754144
101.646749425461
101.490117531237
101.413423053334
101.371625026033
101.296972438029
101.757798787647
101.970902563934
101.889013507326
101.858390244432
102.05607382436
102.078708773321
102.057309427942
101.823238763725
101.83990463124
101.990877201382
102.173038725197
101.87240633688
101.726866753731
101.697027246548
101.94825629524
102.264504516628
102.462054435576
102.126279553369
102.045407613913
102.478775280577
103.037862563084
102.533105796201
101.940725104635
101.557394573584
101.377004283089
101.311859064847
101.492487213752
101.349975731745
101.269662306168
101.20159152575
101.068468302914
101.101184277278
101.154694976102
101.020904861205
100.980510334876
100.975942557338
100.894688152252
100.645438438669
100.653977536481
100.689981785227
100.721766056621
100.763861819012
100.676126072773
100.481428007831
100.468421915883
100.523441418362
100.77623647439
100.82684581841
100.838299271425
100.746402590088
100.660359271452
100.586486088528
100.66571412599
100.643876293019
100.637330028673
100.662328604117
100.751917810407
100.77933907165
100.837086019383
100.687181687005
100.606224165518
100.641021428967
100.726965057856
100.796464791325
100.767283925607
100.654739078418
100.794574276505
100.813611870805
100.910370750225
100.944637464588
100.875988149753
100.742221638857
100.924991910812
101.093268069057
101.116366396619
101.024635185306
101.15767021385
101.18419257499
101.433621882631
101.556695868794
101.659750218474
101.800205426599
101.906452109545
102.023733593878
102.066219568181
102.148009456826
102.225670540207
101.674474010672
101.844393183096
102.170486015398
102.056897051973
101.815144353901
101.787012463688
101.591449323642
101.581210461341
101.463298839434
101.827315812037
101.89425386424
101.880085402707
101.710665099909
101.705113744706
101.464526530536
101.417656337122
101.386594654917
101.307198986978
101.098289684628
101.241642859421
101.230589628696
101.20953548093
101.019318704491
101.034292566986
101.208949393469
101.527726585397
101.116925163992
100.93356877329
101.23078173264
101.522743709817
101.183199189007
101.492232318942
101.700798213239
101.466185895654
101.176491748357
101.150120385818
101.174724546434
101.378435950281
101.135936530302
100.955762420554
100.729062889556
100.426500951446
100.298322348473
100.512985937698
100.452747657166
100.403468607804
100.231854376514
100.133028270258
99.9605995360657
100.150507567408
100.156669450421
100.204813158485
100.046958385387
100.03495389114
100.034566440825
100.090803098679
100.21004498503
100.408303836101
100.223930210685
100.1095054856
100.091034474038
100.088390123829
100.028626849958
99.8894332043181
99.9490184542989
100.19477606216
100.153465257472
100.08850822346
99.9982222855277
100.092015140103
100.081945841563
100.154579280659
100.088525908505
100.054594217909
100.011108232912
99.9960708939284
99.8675053970784
99.9823103360969
100.014654384464
100.10246608178
100.078053575957
100.035872550295
100.047949405259
100.157660824831
100.186077194128
100.234618073354
100.172091635757
100.025736836716
99.8106832792597
99.6755631638555
99.6835077888805
99.9486122042813
99.9394803623495
99.9529922042725
99.9421719974968
99.9877667737586
99.9004179703934
99.9630179146588
99.8642477758524
99.8883264850274
99.667943913162
99.4805116632246
99.4200193962575
99.3771960264016
99.5389707458895
99.5602699706743
99.4199735044571
99.4466481632333
99.3470787344572
99.2871670722619
99.1152720921905
99.0529637955362
99.1696140551103
99.070546026814
99.1836950506885
99.2359516536711
99.2285890530922
99.2178931149593
99.1690837874546
99.1419209690388
99.0950137440797
99.0701566399122
99.1006274521012
99.1030529449084
99.0624217998789
99.0336188712421
98.9643908679501
98.9860646001146
98.9291633557499
98.8476604634957
98.7488944070227
98.6969279743744
98.8491425063178
98.909669487327
98.8886663662596
98.6815905115395
98.6726038123063
98.5628885461965
98.6681004637478
98.4661627523105
98.4042343711603
98.1348981821078
98.049225906112
98.1704799649532
98.1412823496032
98.1735199014979
98.0442513203581
97.7727266373534
97.6333119080783
97.4796551671674
97.1005398040869
96.9738749837426
96.4004701452706
95.70897593665
94.8668828619444
93.9056516674476
92.6090737802101
91.0005558826714
89.1038934578049
86.184900561306
83.9404145739536
81.5794621952438
77.9951238132374
75.5508883365833
73.1093890331679
70.942792964557
68.7792107199746
66.6446569349238
64.4382459147875
62.7553036053259
61.0313530331808
59.6238908727899
58.7019008369526
58.2465905256457
58.2113588852425
58.4145295368669
59.3351681203396
61.2348632122347
62.2102666118801
63.8670963136208
67.2399686497626
69.2081809294489
71.8041845412877
74.6261214648255
75.6485784763657
76.5695290776229
77.5332769977443
77.4950925854414
78.2420884899655
81.0393324071933
82.5060700972801
82.5577211500205
82.599230685942
83.2642209333169
84.4935531462934
84.6853379103822
85.234395123281
86.7748723061717
87.4170265131545
87.361025097637
87.9339680712834
89.0163253551664
89.4532986194691
88.9595910691355
87.9277376548272
88.7592460644585
90.9511271374178
90.902550704015
90.2557191477628
91.1513077917218
92.0295462776768
92.2004155230085
91.9822019329282
91.5100117308964
91.3524687232351
92.4592716891578
93.2566717272045
93.1545497370718
93.0522470666536
93.0408302189439
93.1893672251651
93.3404980805749
93.7305173932814
93.6414352286128
93.1746839387714
93.0508224911697
93.4594962948297
93.4720635662446
93.5312948826181
93.765724474249
94.088801910971
94.3908197766087
94.6355421236693
94.8998369395887
95.1088565658644
95.2301708233767
95.2888990972035
95.3880464419016
95.4324365702113
95.451905804931
95.3959837329489
95.2746406242021
94.8141401518767
94.0139791620278
92.7779888709089
91.8414914753687
91.5784405988488
92.6247382407083
93.4360625351716
93.7625738239754
94.134125575196
94.9519039671133
95.3492620234527
95.3362787966728
95.0834849609795
94.2678955274799
94.4999856470074
95.568501574882
95.6335455522443
95.7433065643027
95.8268682531439
95.8236234561551
95.9258146533527
95.4464433910074
95.1665641733701
95.0005391494727
95.3269249317181
95.7023977993794
95.8917189425699
95.5761668149968
95.7571724264142
95.7825945080038
95.5993364045504
95.4954303651677
95.3763535488093
95.3478304704239
95.2553808045797
95.760154670168
95.6410126429005
95.7676617060174
95.8554289721521
95.319808370954
94.5358335862596
92.9539158754209
91.4050785821234
91.7622664210398
92.7048710010459
93.8681630461088
94.926726031459
95.8839797783623
96.5988542063106
96.8533418086106
96.4768845972758
96.4494685109546
96.8009193827611
96.9418477642496
96.9319358549371
96.6384797903258
96.2660920626445
95.7877029234408
95.0517458024784
94.6363068158062
94.1493178947974
94.1523391728543
93.824509339364
93.2710868216346
92.5881184002449
92.1512558591844
91.5724247238639
90.7050795075615
89.7044837022936
89.1338789924785
88.8787141447466
88.3352153157953
88.3189412950408
88.6278976377548
89.4529579966193
90.1989235528986
90.8718619642954
91.2494389315717
91.522662507516
91.8602340780277
92.9469531412964
93.7548036919662
94.2383734411167
94.7801589818967
95.2222397262708
95.4125239510382
95.2607691130395
95.2665651569517
94.8079429075374
93.8339354498672
92.8783039357877
90.8965972235778
87.7466246265334
83.9360015834701
81.2375427449826
80.6186199990283
82.1942748692624
84.6681561831571
86.5527576110524
87.7870869721429
88.8368286513255
89.4864051713977
90.0621145570637
90.6316131621124
90.7603254648274
90.777356557489
91.0283978369697
91.4898050338445
91.5672061624653
91.4201005869632
90.965235085667
90.3404311487324
89.6285312202137
89.1500334243569
89.0950988434947
89.1561765633656
89.6723821595894
90.6123125167808
91.6025629268122
92.6739796330015
93.7322872725763
94.3351764524392
94.6496392643017
94.8151864950248
94.9077443798721
94.8977107099196
94.7909040382253
94.5702901165235
94.2193333030003
93.706577339565
93.0684486288906
92.4586261687491
92.4386233940126
92.91284026691
93.5676766303076
94.1050361555287
94.3880366748965
94.3925538703291
94.1667729428487
93.7589161345997
93.2261409205708
92.6381753949455
92.0191152711278
91.4315564552222
90.9563257124761
90.5084171171024
90.0584733136832
89.528381648918
88.8099539484932
87.9934011082177
87.2019339443589
86.3934911847838
85.3799732873246
84.0202718628518
82.3847354963245
80.6502738515519
79.0022284302305
77.5171945405485
76.2169101646704
74.9988395084256
73.7952381677543
72.5364281737097
71.2155321189022
69.8495074909556
68.5070045735955
67.2159327831813
65.9687330371647
64.7327914495812
63.4947389120984
62.2228165679757
60.9394502791001
59.6458018764413
58.4076893909231
57.3626500542798
56.6233096057576
56.1925338562327
55.9556017651368
55.6919426362708
55.2600136174483
54.6178441694565
53.8023765054245
52.8811930507388
51.9099813626897
50.9531055164395
50.1181958208915
49.4596143950487
49.080166610393
49.0574222743743
49.4264319991729
50.176771254062
51.2915827116187
52.7184171120696
54.4005102680155
56.1901537125901
57.9241594114376
59.5707742666054
61.2397970863179
62.9807436654516
64.768192220208
66.5142851159753
68.1912862422233
69.785603483933
71.2895943340581
72.7089246411421
74.0613769377
75.3376686748499
76.569607351732
77.7642919713937
78.9348315060859
80.0671876449345
81.1574465662785
82.2311415169861
83.2578143824523
84.1484094855588
84.8367379841738
85.2292831586833
85.2937941021164
85.0241554606785
84.5218310806849
83.9761540487858
83.6296759277832
83.7385273605028
84.4366199180676
85.5973154385827
86.8381434941226
87.8096026789421
88.4815536172179
88.9168370874528
89.1041261098784
89.0215341327338
88.7282543412756
88.2900948007376
87.7645755743067
87.1610515526072
86.4186946211315
85.4775934168157
84.3493871156434
83.1007724898813
81.8147206263849
80.5302279666863
79.2699349101085
78.0066237520888
76.7029878601558
75.3064246173668
73.7468559341756
71.9526543696296
69.9316666499943
67.7528050764139
65.5863359765368
63.6381906728671
62.1383178915326
61.2658908296841
61.1646864909535
61.7536245016648
62.4871897631129
62.5396612972541
61.5044831757702
59.6283160811961
57.4655555419233
55.3754062965221
53.5177771902709
51.9731279207667
50.7879509214304
49.9729138826225
49.5193223040428
49.3375563253263
49.3546275118047
49.4687680339122
49.6282020454188
49.8915307718391
50.3969808000077
51.2473838615957
52.5112380547424
54.0855705332294
55.8255771363602
57.5674109873736
59.2418732571402
60.8214335174616
62.3330538203811
63.78866053605
65.1759888590718
66.4819326383544
67.6516108462618
68.5929290482542
69.2590442990578
69.6082752223833
69.6925611193869
69.5602865220697
69.2522623383156
68.8680508708461
68.6035603347605
68.5712535648688
68.8118959142332
69.2744316735856
69.8883839378937
70.5800528278574
71.2976897470118
72.0266383798538
72.779550584322
73.4558232135871
73.6023711772652
72.1543995177484
68.1906221025312
62.3796863375231
57.079246084925
54.6780532574041
55.8530771082624
59.0331442169471
62.3024448588042
65.0438385208507
67.3185193749384
69.1536315496461
70.6385384978193
71.905690145998
73.009440888088
73.9320598449143
74.6759147039492
75.2492010655605
75.6714034882739
75.9492734749633
76.1422542998776
76.2695156120876
76.3683037381049
76.436227914726
76.4123660403392
76.2228206344358
75.8473204377534
75.3580144371145
74.9027452540085
74.5852142461664
74.4282114697489
74.3851821779397
74.4530200318395
74.5057937798924
74.359856527324
73.9539019869117
73.4984381676497
73.3290317828297
73.5304011564081
73.9075951786092
74.3281617690002
74.7768835196171
75.3673476980644
76.1309843707018
76.9847586729247
77.8258615438889
78.5611219790299
79.1804557409802
79.7245322407112
80.179293099473
80.5578119169045
80.9142632078014
81.2921960355844
81.6352309047053
81.9514197043268
82.3134619829489
82.7276515034363
83.1150994796473
83.4583520638795
83.7277498768188
83.8915042083798
83.9261375977131
83.8100334285432
83.4344316270915
82.8102932320921
82.0570246579609
81.3038387253163
80.7309747516809
80.4422169181584
80.3463102039414
80.3334120322113
80.3989111893441
80.4993491336378
80.5526425849224
80.4839626223174
80.2195625348353
79.5725134913862
78.3110891596754
76.3733825896238
73.9053317245342
71.2368372495989
69.0132930751688
68.0106414217142
68.5295588943711
70.2260680015882
72.3599707174608
74.3253540532992
75.8904271729467
77.07701207938
77.9105852061391
78.4264940504327
78.7100991572288
78.8653005883778
78.9096521749542
78.9066596765214
78.8982286381535
78.8869351939529
78.8831756486254
78.9620455506396
79.1875952328676
79.4900218145518
79.8098873146487
80.2110864798261
80.6359839234617
81.0159495255734
81.3419880098815
81.6244674876789
81.861691280038
81.9957719886415
82.088430886396
82.2789901636
82.4287581368081
82.4657292334777
82.4831124226216
82.4835096015394
82.487557115764
82.5876404503339
82.6704863834599
82.6908228555691
82.8768544500672
83.2492177748185
83.4933909349261
82.8104634017127
80.9733069537002
79.4552465421483
79.4761946049211
80.653792943082
82.1111713573416
83.5712950101358
84.8821307875526
85.9684265885016
86.7931213196381
87.3819421823201
87.8387019432999
88.2488133450421
88.6319655447358
89.0895699526256
89.733793824492
90.4161789966798
91.0504184968072
91.6059242494634
92.0783948740556
92.5209113426849
92.9002308807922
93.2702757865358
93.5531200259266
93.6313994773011
93.6403213051246
93.4879735567816
93.1506375422498
92.4322015748286
90.9939241204498
88.4917217282195
84.2699626362606
78.2683621088907
71.5339430083439
65.0211023329433
58.9178309707148
53.0915962471814
47.3348401052245
42.2142244144463
38.6878793185143
37.7576241288724
39.2307038413525
42.2542866586765
46.2408241955961
50.5596082660853
54.0545376041719
56.6000589286853
58.4667502280369
59.8263139264771
60.9470284076947
62.2756333926879
63.6860735688581
65.1552579825519
66.8248530274738
68.4890668613432
69.9102433259911
71.1351426305066
72.095886565546
73.0592059730963
73.7765844537753
73.9721132977177
74.2223941254216
74.5423034871479
74.6049651209478
74.9186781397755
75.5121726583252
76.2704945804315
76.9606589134724
77.2442205801564
77.4045593092236
79.1921113615652
79.4876995362877
78.8811416998547
79.0772225610737
79.4438803368655
79.9948329352679
79.8611359380008
79.7525032338495
80.2400911486671
80.6334011198652
