1798
3999.43349933624
650.420452594757
1
128
4
99.1962740142848
99.2227743999005
99.3283386942032
99.3705195381191
99.3469181205834
99.3957801520975
99.4201476374676
99.3566754441446
99.3365285541104
99.3287604514632
99.2269653786984
99.1432742884514
99.1778930281756
99.3061042408223
99.3262944302592
99.247940746837
99.2582387255085
99.3706039648705
99.3268886414381
99.30427088855
99.37890730507
99.2830053470986
99.2096619585193
99.2239901954878
99.1996555568149
99.1415362845178
99.1993508596149
99.3350692938363
99.2250997705735
99.1948439379817
99.3260934521641
99.2986326533565
99.2506226871682
99.3087205269955
99.2605693169201
99.3002359466883
99.3242707783002
99.2915820008638
99.3297312539559
99.3224739976027
99.2711685092654
99.2590428445186
99.2742941242375
99.2008152304733
99.3170990184414
99.3850636310474
99.4130489425227
99.3847596947682
99.2348973910882
99.0544100758949
98.9517780240341
99.0674664418705
99.0907330034454
99.2833344480174
99.4331984147159
99.3752721092042
99.2159302899998
99.2220794759156
99.3576624457124
99.00880722914
98.9624013358404
99.1911500111503
99.1065434568967
99.2684315198905
99.4293793413845
99.3010081462427
99.259021167286
99.2106052363358
98.8438227015602
99.2588749015298
99.2032303740938
99.1039959023655
99.2332522697093
99.2918152082432
99.2884355212202
99.1789604224348
99.026017258468
98.9459413832711
99.3994855767685
99.4608064876818
99.4988561866798
99.356965214138
99.1486441533455
99.1264723123932
99.0412795943913
98.9366069556997
99.1392562307927
99.2401547739497
99.2680781744975
99.3414155278558
99.4078477125112
99.2070945730005
99.2945574577248
99.0710950448243
98.650797045481
99.1188267138189
99.2720416452625
99.0887744611738
99.5592464401146
99.4855200744752
99.3973074708926
99.1013517877866
98.9906523309475
99.3123489301519
99.0041771754178
98.9084612805834
99.3933549999016
99.1953629313114
99.2948977364787
99.3646820744627
99.3102211303651
99.3905686747131
99.416486779777
99.2110889427511
99.1522269946608
99.3228483465952
99.2971155721523
99.249491332449
99.350638015362
99.2750879653246
99.2782669409303
99.0520083375288
99.0662423424949
99.2603204777281
99.1289666917571
99.3756450351578
99.3686557890854
99.1747463157183
99.2272835103799
99.2179259874219
99.1758944776681
98.9163046326399
98.9009862946066
99.0235319083386
99.4322408302601
99.0549712089757
99.4557985355917
99.6934851037404
99.3297932541905
99.0585341345474
99.0334845279452
99.2632685013838
99.2119408248254
99.4619064304181
99.4662964298923
99.2826266011667
99.3165886779946
99.3183323291512
99.3179246043987
99.3152247898761
99.3975468654333
99.333688236283
99.0444375594667
98.9659886566364
99.1848941875647
99.4119896191759
99.4467553536469
99.3815543426903
99.1635681144681
99.1998432231737
99.3636251333941
99.3229046418205
99.1992159280988
99.0782831735325
99.0444619457784
98.9806661135474
99.101200611048
99.3212281530936
99.3139230209706
99.345609800649
99.2215807757539
99.1777099454264
98.7224310358904
99.0890321612295
99.2303871175367
98.7555867643824
99.0029088406623
99.3225428987905
99.3138524265339
99.2249275717945
99.0313350007458
98.9799369881825
98.9755284729449
98.9646063580153
99.1479785968967
98.7849961665035
98.6037992847935
98.8333914322693
98.9738253984117
99.1118062156516
99.0795836632446
99.0321025288552
98.8811565349791
98.8137744779383
98.6723604988162
98.6628199441311
98.8018694147446
98.2909902554179
98.4070739743071
98.8215499689936
98.9212923359793
98.8869656133438
98.6123078155534
98.4502792105538
98.4864969542785
98.455036086989
98.5101623660781
98.5416856007065
98.521281182772
98.6772439235734
98.6960886412449
98.5890289956505
98.4923567797073
98.5853460066273
98.6228290151763
98.5833767547261
98.5810789755332
98.5981801036056
98.6512850303644
98.5309292587953
98.6007258787956
98.7259671772604
98.7018709397214
98.5977080755714
98.5654765574861
98.4849177622037
98.3731655450558
98.345159624714
98.3654522163489
98.3928396989928
98.0436891940338
97.9595835869504
98.2957873231858
98.3459710398895
98.3384940532613
98.3244777310558
98.2596406019439
98.2689647646366
98.2993663444554
98.2912224124588
98.3103029455776
98.1511359023607
97.8928725537716
97.8976212768058
98.0421967667844
98.0420875789725
98.0674487172412
98.1311063506043
98.2609831746903
98.1793272182636
98.0181760666117
98.0092736692014
97.8839251140482
97.7196055138219
97.7529053947824
97.8526109197372
97.993527640486
98.2047628407373
98.1570679313621
97.948152172009
97.9158123647211
97.8344970244906
97.6995570107664
97.7284511860746
97.7609658995088
97.778866916253
97.869876133357
97.8874055518416
97.8349738028964
97.7683143359697
97.7312655064808
97.7340375042507
97.7771661201395
97.8411899933184
97.8011390251427
97.6813826461328
97.6067469204772
97.616368026445
97.6313025823359
97.5470982871869
97.4423955408588
97.4549388834495
97.4913204508691
97.5116284713549
97.3465569783185
97.3423383741946
97.3762232490144
97.4009750792944
97.5452073799542
97.5350043167523
97.3827908566759
97.2308857498871
97.147069332064
97.1231661481629
97.1408398122619
97.0323335250005
97.1204657403617
97.1734423411983
97.0787296878502
96.9689595190797
96.8304313699012
96.7875431330283
96.9038818347842
96.9380126127002
96.8860094240578
96.8752859888272
96.861875496191
96.8345599774898
96.9033645412681
96.8645956929949
96.744074492014
96.6194254414567
96.6315326750254
96.6833454538061
96.6741756025572
96.7812378929129
96.8745535508995
96.747301164089
96.6614600778318
96.7574240950333
96.8314820975585
96.8677165600596
96.8432705823118
96.7604183132233
96.6670425546587
96.7748021721567
96.877101383986
96.8950030766619
96.9352316871697
96.8402317022082
96.7425001638562
96.7316690009708
96.7152887358
96.7557930657558
96.7100180868398
96.6445098165801
96.6053402593734
96.6367992046648
96.7021091309375
96.73325367912
96.6210693039033
96.6442081031844
96.7151022201165
96.6819299743793
96.698730813327
96.6695338439051
96.5679319051081
96.605586823544
96.6890215052608
96.707115293406
96.7480415777134
96.6564904694255
96.4965727489499
96.3800414980376
96.409065141987
96.4485552595985
96.4404457286088
96.4812885012945
96.5002680416093
96.4934344289436
96.4979282091478
96.4356661394318
96.343257414331
96.2996299810759
96.4020529624164
96.4370824823624
96.4221287523132
96.4762311752561
96.3970048641057
96.3202442847345
96.3441813002335
96.2875445771728
96.2156205515243
96.3294452109313
96.5494985171187
96.5130090621432
96.3544165438249
96.3592593023608
96.4353317381277
96.4336249512784
96.4157111849222
96.393913553396
96.3686999741107
96.3064037020339
96.3449916962411
96.3681312088517
96.375187951296
96.4090634272624
96.4156790162271
96.326407263959
96.2653202443189
96.3285978411522
96.4164546434395
96.4692103252518
96.4052604517761
96.3726622355358
96.4304757314475
96.4791140633347
96.4799721525442
96.5087453229534
96.5043121555841
96.4888741733
96.4723544827418
96.4466799796212
96.4959244006474
96.5224003787277
96.4713190637155
96.5520570414587
96.5529587925478
96.4996883616566
96.6184995855562
96.7154422689356
96.7720522838589
96.7310566638157
96.525130226407
96.5349250370804
96.6889208939048
96.7544971010053
96.73210610185
96.6184596649801
96.5391354162513
96.6698494942837
96.7554456669763
96.6560384146476
96.6455464465847
96.8266092478938
96.8295982355302
96.7569526025752
96.7738329604266
96.7862769837516
96.738914342639
96.6896220280844
96.7735942863717
96.8227159774488
96.7816168735031
96.8219148550904
96.8066077595368
96.7436290757483
96.8526229682475
96.946537002546
96.8688643398659
96.8523018046907
96.9542589479599
96.9804780205599
96.984730442229
96.9186128266568
96.9472851520094
97.0169108334706
97.0714407012604
97.0604906123803
97.1213452131682
97.1309620504137
97.1200661942143
97.1460521223012
97.0687516199805
97.0309606088017
97.077229547273
97.1009194122686
97.1700496774978
97.2128632329254
97.192549953854
97.202940415993
97.2439045964563
97.2446774269422
97.2169753081465
97.1465156229076
97.1065678040504
97.1229584659271
97.1631053201189
97.1875595177422
97.2035889540406
97.213093971141
97.1706016958223
97.1029671140735
97.1142447773543
97.1941451065954
97.2324138888068
97.1924390357417
97.1792409357295
97.1956782045482
97.2182690138541
97.2154552259545
97.2145106297248
97.2068017999313
97.2560218273431
97.3093862331338
97.1887439438403
97.1837256719809
97.3175678396896
97.2234692085187
97.1064011191793
97.1057559584374
97.1209029952134
97.0726662905909
97.067400644398
97.0949265050129
97.1104558509086
97.1465169399043
97.1229314993048
97.0259007563958
97.0405522671002
97.0758429568799
97.1211714941791
97.1569036234363
97.1179128131877
97.1022780890021
97.0781165760403
97.0803628719563
97.1366885256144
97.1786322810928
97.1756658183032
97.1918119011118
97.2738863288988
97.3869909201953
97.4172958875416
97.4144691234492
97.4788546871345
97.4650707825309
97.3991130153517
97.3706305860245
97.4340016093851
97.5084105420635
97.4955918829899
97.4932227378277
97.4581212937338
97.4578402206794
97.5108975869929
97.4783147239408
97.3855738883091
97.3715179737405
97.3743403823928
97.3613369954315
97.3069149554573
97.2418511760708
97.1953255405538
97.1355460137779
97.0897890097133
97.0344499382943
97.0179071094201
96.9514582269123
96.8861686820682
96.8846098111971
96.7852303809195
96.6734612575432
96.5887668822958
96.4702613284637
96.3280317212335
96.1969019433737
96.0963769764792
95.9565234939172
95.7989242916224
95.6464391160466
95.4945534252176
95.3052537760069
95.1258878310661
94.9238845901501
94.7172347346845
94.4955254938795
94.2316979132065
94.0695236878515
93.923761795062
93.7827939885674
93.6629457048213
93.4906066534134
93.3810378967134
93.3129878441654
93.1452302402316
92.949909505584
92.8656079018114
92.7129066486212
92.4746575850578
92.2558934426709
92.0210915248958
91.8139543154604
91.5407817915939
91.3086707005144
91.2178531003606
91.1498960948788
91.1043193980445
91.1883464774331
91.3539392003393
91.5783368599544
91.8771226216845
92.1740342540094
92.474435115252
92.751275335372
92.9586333911273
93.1688763282757
93.3557754431642
93.4755434016427
93.5735853890194
93.6848054086321
93.742640706897
93.7882509773708
93.8766803938243
94.0018534213018
94.1315982358564
94.2536703314128
94.3984660212071
94.5521426927401
94.7014967431563
94.8248584387063
94.8773641049001
94.9185970205755
94.9748879167162
94.9252369460007
94.8410324718036
94.7533230492359
94.6729102591917
94.5294106022139
94.3364209686915
94.1001791131983
93.8084771018973
93.5240886116376
93.3346437356951
93.1805968231106
93.1818185428621
93.4032391744459
93.7620912271403
94.1488203176745
94.5690179404729
94.9863343759483
95.325167040227
95.6287112635692
95.8424001105516
96.0618705357097
96.2569218819228
96.4123039313587
96.5470999970074
96.612604827021
96.6690293422544
96.7317503496134
96.7813182353349
96.8291329638975
96.8764369472123
96.9457977579867
96.9405938167339
96.9604117621481
97.0330941930271
97.0926270660807
97.1481020412548
97.1606245599332
97.1365508496847
97.155957966096
97.1900078195148
97.2467381982874
97.2905450456904
97.2918229371361
97.3096385230792
97.340042061766
97.3710411952411
97.4142300135866
97.4175027720734
97.4004964351849
97.4210487779119
97.435211065259
97.4631135234698
97.515674049751
97.529489797481
97.5211712978113
97.5630127057531
97.6106140901995
97.6391678571489
97.6194050120906
97.6140583807417
97.6140105256602
97.5609433792205
97.5641644201413
97.6245541543403
97.6521048049143
97.6955429805652
97.7001299558212
97.6786656890007
97.6879731976011
97.712282742486
97.7296860870281
97.7102408416227
97.7110256628574
97.7439423202385
97.7308026857872
97.7290810183463
97.7492268002299
97.7660440914075
97.8084521646855
97.8155551810698
97.8263214005099
97.8505876783886
97.8421560954137
97.7862540688476
97.7825692507243
97.8465750531516
97.839768859619
97.8414479340376
97.8792553437819
97.9016995759869
97.9076966733892
97.8991399605327
97.8874743315279
97.9565552858304
97.985054065831
97.9246074486813
97.9032250431241
97.9316072301123
97.9509800978322
97.9483110321096
97.9246962733272
97.9534759864553
97.969959643368
97.9174446593072
97.9364260053542
97.9787793643864
97.9611767955076
97.94594476239
97.9531391950211
97.966545538102
97.9584613165153
97.9952388867568
97.9943729145991
97.9064460636063
97.8672999611581
97.8672473330011
97.9193323017852
97.9557030801472
97.9633211686102
97.9767181225079
97.9906312963694
98.0208239206026
98.0341319528342
98.0181049405032
97.9898127286602
98.023197108096
98.0791007842382
98.038548063842
98.0016054777378
98.01690986514
97.9954413703319
97.9715659799802
98.0203831834267
98.0953636450177
98.1382825121769
98.1502920845907
98.1306031460291
98.167348853479
98.1762581864136
98.1541406495368
98.1878966355576
98.2312346670059
98.2582517735268
98.2953337032077
98.2967328384593
98.2284169936324
98.1735089702164
98.2354076217826
98.2720918641408
98.3004484841341
98.3499890302303
98.352419432466
98.3817623811296
98.4300023913224
98.4741568815669
98.4392251671124
98.3950109903951
98.4204864544125
98.3927094080173
98.3697037914589
98.3989943936607
98.4091437206784
98.3737785293426
98.3505391667849
98.4044716389452
98.5082484971881
98.5021133334995
98.4297724754708
98.4579064871441
98.5433344257757
98.5309036368445
98.465688546274
98.4439010872692
98.5242845198666
98.506966852775
98.4137828100948
98.453003484129
98.4770579564136
98.4660478659564
98.4827335008456
98.4950049624512
98.5412425485293
98.5616031316403
98.5541928684356
98.5726031210434
98.5623745023847
98.4943447959894
98.512014666585
98.618119125715
98.6172838647755
98.5410629328496
98.553152409608
98.5372602606323
98.453931928772
98.455312428187
98.4950709649769
98.5504306065626
98.5775777989775
98.6080634871425
98.6023652084441
98.5881893443403
98.5539794349823
98.5501936387706
98.5723471022215
98.5564838294824
98.5652167447106
98.5659482099904
98.6100127711307
98.6525274760755
98.664479824496
98.7006631481902
98.6771035397854
98.6411613323976
98.5922167181118
98.5463431743703
98.5271988314746
98.5059187243276
98.5005503274164
98.55017109565
98.6129498005454
98.634542228326
98.6356995472854
98.6449100357919
98.6451938619859
98.6422816212208
98.6552142149926
98.6996868350648
98.6315322530235
98.5700128970861
98.5993402947088
98.6514962112489
98.6686112489776
98.6347367023145
98.6307970371791
98.6586463751615
98.7056904353184
98.7054666511477
98.6917550283234
98.6926569683829
98.6430732213481
98.6573939258839
98.7076812954088
98.6698076011827
98.5864140403481
98.6070348715099
98.6375147156226
98.6369028856878
98.6523929126789
98.6110378181848
98.5740383823881
98.6073658478417
98.5901097717486
98.5964391866472
98.6461001505973
98.6235772856438
98.5685165004984
98.5386201148905
98.5425329410237
98.5678573527531
98.50153126568
98.4585095766869
98.4809810223028
98.4991369663822
98.4559434915381
98.3994697391103
98.382504370825
98.3952492017108
98.3717759941127
98.3295777820014
98.4575352563099
98.626801507806
98.6257335803037
98.6700639770197
98.6415384667052
98.6431474062022
98.6702996009752
98.6464715240362
98.6667759363401
98.6950930583386
98.6610554018353
98.5749817070721
98.5133678633024
98.4794833946298
98.4738955705679
98.5493047317206
98.6439451736708
98.6841705482247
98.6190194603273
98.5551776658428
98.5905831681211
98.613107395911
98.5343828893816
98.5100806044793
98.4111345324446
98.3885097860737
98.4580383462696
98.4663805595705
98.5164002202585
98.5916137378011
98.5958907973005
98.6201955190105
98.6215344936576
98.5906077806942
98.565739199511
98.6019045443407
98.6867147814288
98.7289527810585
98.6668345841021
98.6340438453874
98.6353434370038
98.6994992574785
98.7727030650615
98.7102154144138
98.6480631651912
98.6774290522256
98.7645718348952
98.8694012808819
98.9099484901781
98.9022668160986
98.8941798303051
98.9082537923068
98.9319583451983
98.9847689658383
99.0739503641228
99.1041144337883
99.0808659982261
99.1271014466663
99.2429361452923
99.3171298625412
99.4070678351957
99.5603489179638
99.5451312930621
99.365688472406
99.3520913172713
99.3271028108254
99.2243853499398
99.344518446473
99.5156996366992
99.5605225148754
99.4710498353568
99.3241960286738
99.3290070953198
99.5357914395346
99.6192040014926
99.5720620146465
99.430639805264
99.3262640840371
99.4677141881199
99.5516513475721
99.5314927090896
99.6453131672985
99.6498540623892
99.6779421904325
99.7491110478065
99.8752486605165
99.7936800976476
99.7320035144302
99.9468453064665
100.077148452652
99.9837707726582
99.9968755300144
100.113164342272
100.041996415584
99.9003410002894
99.9711408064117
100.087747972371
100.028141782064
100.113467098148
100.182524051193
99.9472035576207
99.7291471256954
99.6242200874621
99.8027626175366
100.056605580365
99.915504692022
99.8004794150628
99.9066371511816
100.006863363162
100.249110980546
100.391074716036
100.473185357504
100.658979034573
100.856091721997
100.659502659279
100.395221105115
100.15532871258
99.9082984702147
99.6549944172736
99.6540431230814
99.7088747629462
99.8970368323339
99.8139263787463
99.7326857791004
99.7373250693908
99.6138047455296
99.4822607524799
99.5062955928733
99.3721102588673
99.3101536648806
99.3707902157607
99.4626326496692
99.4175002360701
99.2281290972653
99.2010245362004
99.2825932528401
99.2010976712684
99.1915980396979
99.1436377361715
99.0106675989818
99.0280190733168
99.2113619816924
99.3018053472958
99.1924305732296
99.2187663588606
99.3601531344897
99.3122637362762
99.3062092464292
99.3344064833692
99.3109693177302
99.2719913688618
99.1660689982349
99.0605216914051
99.1368387486927
99.3246576953761
99.3454601813014
99.1851176761787
99.15941288946
99.2401034178219
99.289142083265
99.3434736528588
99.4989946102508
99.4410494877295
99.4451951007242
99.5900655156587
99.6131577590752
99.6587828766274
99.6322020710098
99.5346841560171
99.6883018141984
99.7079816480292
99.523480762482
99.596476437942
100.053268403522
100.110227611022
100.213679245903
100.390466881542
100.164769922989
100.134654275165
100.374097516725
100.414549485681
100.343918656794
100.021064176726
99.8797020257481
100.056852057247
100.041131768389
100.041799936391
100.59036738845
100.587264925787
100.10464267674
99.7357610640101
99.8372150292381
100.261497285968
100.280517343953
99.8528248237601
99.6331784213155
99.6624411588313
99.8791786229173
99.9050126503011
99.8410483580342
99.899205693619
99.8188914213941
99.5815652887516
99.7219560260737
99.9814172873763
99.9770146736234
99.6069133413277
99.4223869180339
99.7138166519741
100.066780322568
100.174392762083
100.24004130795
99.8877269443051
99.571489362745
99.7607319841748
100.077773906538
99.9271180544428
99.6919019242532
99.5097028514938
99.6887978888499
99.9277695698598
99.7468202824183
99.3006033207294
99.0739745199697
99.055797562445
99.175960940136
99.0396453765529
98.9871152247006
99.1838750095202
99.4278288009221
99.2566413402033
99.0389567897548
98.9645276014818
99.0678801266118
99.1259236444104
99.130603813526
99.1471715453553
99.2275010704839
99.0724780571422
98.9363184777633
99.0315100906994
99.1024674179744
99.0439187453542
99.0583241789729
99.0705895013919
99.0950311079982
99.0992387821798
99.0513872815463
98.966423595111
98.9724560518638
99.0016580956159
99.1062885659762
99.2239824792993
99.2199994262153
99.090317927492
99.1281652562589
99.1641549067625
99.0894991933895
98.9905618621098
99.0625839153542
99.1012740515199
99.069797368325
99.0240498135734
99.0600280427883
99.1231729677471
99.1029365867306
99.0193134220295
98.982904110491
98.8544360122463
98.839445721525
98.9636215823606
99.0447839732921
99.0316372055655
99.0032912094474
98.9692852028808
99.0211810462935
98.956130049911
98.9020256512382
98.8624629142332
98.8791115084316
98.7877291601786
98.7038978797695
98.742496446874
98.8844460629195
98.8318689681966
98.7286581833082
98.693912144237
98.6988415747939
98.6567141518886
98.6728586421386
98.6044732840212
98.4735637250051
98.4378061901994
98.5066294741635
98.5576466053046
98.488762440867
98.4720252315613
98.5261454871431
98.5215927145039
98.4772649319539
98.457050020599
98.4755991031371
98.4824453649369
98.460517863646
98.4157072457954
98.4213079461888
98.4545820707162
98.4558158442632
98.3915710353937
98.3205767087862
98.2811865223288
98.3426539787226
98.3491946982211
98.2880369214549
98.299644226789
98.2633663707542
98.2171882977114
98.1862302919937
98.197555030299
98.088406415743
98.0464189947984
97.9880906844306
97.9868781670596
97.965720286053
97.9341539504599
97.8426327641557
97.7985430591281
97.7240050552689
97.593594661056
97.4455163753078
97.197662899629
96.9590927971854
96.6131954157863
96.2231725997217
95.6560574554433
94.9465755555474
93.9628409563297
92.7867610874405
91.4072626414109
89.2936124824431
87.6034179822237
86.046077909789
83.5428572051209
81.3221023715569
79.2665729748393
77.318326506841
75.4710968881734
73.6765441951484
71.8449376222617
70.407895941431
69.2577556660556
68.2380978651999
67.1681127981333
66.298392964632
65.7856189921086
65.6349459826699
66.1455771734735
67.6588178250994
68.3803872153099
69.2817750907051
72.4731953652923
74.1764682627644
76.2528148006475
78.6661752588111
79.3795714036594
80.0321557042878
80.7521201090523
80.5723102371836
81.153619667931
83.6747968736664
84.6470751943287
84.6235246213933
84.3583808628895
84.8753365394479
85.8506345146642
85.8421728395265
86.3102223521816
87.5538168649868
87.8712426333689
87.6474060813103
88.0986358507004
88.9171969433544
89.1636050178548
88.6998272242768
87.6587077271164
88.8078741287488
90.7479034422593
90.4648120610757
89.9615648704073
90.7465665542041
91.306914029915
91.2715336053717
91.0416429744994
90.6911854702229
90.7263365478894
91.7712988354737
92.2033066308649
92.0135474873896
91.9346750176606
92.0456126627761
92.100509842538
92.2950898255968
92.6039041197101
92.4374020010234
92.1325267352962
92.2877126399826
92.4607416310477
92.3358012104778
92.3108331828001
92.4545830833242
92.6941243286329
92.8743917652828
93.0452001162979
93.229901054834
93.3662779424528
93.4120730948251
93.4589931133177
93.5485886165718
93.6171926197208
93.6762841298307
93.7100997914761
93.6191649177125
93.3270819081079
92.8460306569081
92.0565679053241
91.2393543733988
91.1116921231333
91.9789834324836
92.3756792715018
92.5532897737603
93.1039709516868
93.6636378182031
93.900925511191
93.9927413035681
93.7293421834019
93.3959119453537
94.1833034685041
94.6940835656903
94.6729666653456
94.6321106185949
94.588503466834
94.6653128797632
94.6530708541134
94.5628743917159
94.487125862038
94.403638828827
94.9556478178249
95.1560602346518
94.9946508661197
94.9206533974683
95.0981534156561
94.9794441517521
94.8460755150693
94.8941805284201
94.9061896759299
94.8640003641491
95.0323674865835
95.2544155609401
95.2642916449197
95.3830674580509
95.3544143366539
95.1097889914989
94.6173661156558
93.7300951850867
92.7749502200616
92.5865802333189
92.9358422563209
93.6845415496444
94.5339956482061
95.3996446036544
95.9758019254131
96.0976134605834
95.9703854588065
96.1066069034489
96.2965355192681
96.286688146144
96.1580530228797
95.9589675947653
95.6829618354163
95.2916933742119
94.8508526562734
94.5316192460626
94.2668767442432
94.0929198571208
93.6343008566973
93.1406590561502
92.7339060776279
92.4464501154626
91.9328216802581
91.339941354245
90.9052723924319
90.6017198920621
90.0905993036853
89.5780830145718
89.396141079024
89.6185937069361
90.2520806079586
90.8040533846272
91.2896740976186
91.5828581688808
91.7115906901565
92.1543875397173
93.0301626406076
93.474081303511
93.8300001300567
94.3374807530041
94.7279642518048
94.8717253632014
94.8781611665407
94.8304951999528
94.6140915213967
94.277165685626
93.5498836108816
92.0717845762425
89.6940574076918
86.6679483805841
84.2516908992771
83.3910399079129
84.4301898044405
86.3360763212242
87.7259948036063
88.8030454604976
89.795279386883
90.3867262871462
90.9199815968294
91.2773896589326
91.3529119216244
91.4242735075166
91.7085820999574
92.0161790458668
92.0595044328857
91.9569568353759
91.6654718921301
91.2509298304892
90.7765134802573
90.454930187937
90.2904514642239
90.2534954166356
90.5972243110016
91.2002945567114
91.904955976057
92.8510770886711
93.6897650027567
94.1090370649916
94.3425569219038
94.5128650715808
94.6293532179221
94.6742217490341
94.6187642097079
94.4554036056807
94.1623089848821
93.7273528058711
93.2067498921289
92.7740331463813
92.7148194502504
93.0061314887498
93.4954592515545
94.0007921023569
94.3703544767974
94.4755994665579
94.3519198955408
94.0805995537002
93.7092641074784
93.2859839517647
92.8461946006794
92.4312235587137
92.0502245311575
91.7090950066076
91.3758186990857
90.9371772795722
90.3908268888855
89.8178940496188
89.2420399858967
88.6432320634549
87.8958893128566
86.8684602932649
85.5689987456669
84.1507557664505
82.7983105795986
81.573508772184
80.4707190598361
79.4409270300055
78.4094593132431
77.3203248028884
76.1715563625678
74.984890927579
73.8286372279257
72.7205698295904
71.6273713222421
70.5567440072442
69.5097163624197
68.4088971729028
67.2421197156677
66.0534189020572
64.9202753527907
63.9148445425106
63.1787465390146
62.7621783910451
62.5321527046222
62.3244376017262
61.9926352976
61.4415295956
60.6990909063314
59.813281124908
58.8393973243867
57.8385897927807
56.8892271528523
56.0530096686973
55.4602077382728
55.2024893369358
55.3150126874879
55.8042540431594
56.6652961353195
57.8476901222377
59.2976729089342
60.9060843265133
62.4850068018526
63.9222626812765
65.3623820106586
66.8921842057587
68.4564192594009
69.9770574027985
71.4342330298848
72.8085553335788
74.1129389442946
75.3588902624722
76.5317929325055
77.6409669999253
78.704372330324
79.7241082747652
80.7185402516954
81.6981134164282
82.65972844793
83.5953148530312
84.4996421036534
85.3214221201434
85.9992956222044
86.4444197184534
86.6089933168117
86.4966744038932
86.146305649566
85.710837053063
85.4196402891316
85.4524160216882
85.9585648431265
86.8615615454464
87.8623967190836
88.7147314264476
89.320681297606
89.7175681059906
89.954313764785
89.9851015216467
89.8380174053906
89.5643933420762
89.1913678748217
88.7621487678511
88.23623986137
87.5728156221828
86.7699481813858
85.828689392501
84.8152105598782
83.7882348438057
82.7377671716966
81.6680008538149
80.576426296519
79.4072573592236
78.0858793799644
76.55312739877
74.810985574901
72.906090524379
70.9575346924194
69.1429549730797
67.6829254323726
66.7343160081512
66.4914997998771
66.9535902717258
67.6652425322661
67.859720795028
67.0652943001558
65.4261863062793
63.4486924172134
61.4796822136393
59.6583118537291
58.09649197902
56.8526789348144
55.9011572838003
55.2610250992156
54.9319064311189
54.8175748301605
54.7816512420512
54.7822088023928
54.8562105913925
55.1369791698862
55.7514958549508
56.7935545526635
58.14350607226
59.6528221425935
61.2070516340808
62.7365140619213
64.2007933625558
65.5843628531597
66.9008397320674
68.1708826658056
69.3622200803786
70.4487241117157
71.3612748906486
72.0650653801282
72.5299371643185
72.7243323407593
72.6592931160566
72.4164981635617
72.1263236605439
71.9011166516788
71.8380610716116
71.9970256282371
72.3377745687217
72.8429513438815
73.4690544612299
74.1309188170197
74.8292999660936
75.6196747046688
76.4088175707581
76.8126979890337
75.9004721789038
72.6921876165718
67.46501339531
62.2180379997324
59.3216134686907
59.7424400463484
62.2719120832091
65.1136641664009
67.5543825488545
69.5869754179433
71.2584125460057
72.654178040976
73.8471281787897
74.8652459564195
75.7318424848429
76.4791526251136
77.083204952309
77.5301364533524
77.8084031875917
78.0020860624424
78.1689117061396
78.3058825562133
78.3893432017908
78.3898883207842
78.2662032547973
77.9874311445112
77.5851361007568
77.2199710199445
76.9515226309677
76.7923109878477
76.755594771096
76.7969415319532
76.8588728548708
76.8089592498208
76.4633919578108
76.0063507365458
75.7918741941341
75.9134058315089
76.2244534034597
76.5604109350025
76.9008712286729
77.355844197277
77.9618147430176
78.694505135373
79.4049078754265
80.0325106887487
80.5883848223501
81.073526045292
81.4658237015584
81.8230823445111
82.1523851399049
82.4368801100875
82.7214022438256
83.0410508814775
83.3716160398237
83.7297507564214
84.0979959577636
84.4235839653019
84.7094384548157
84.9284114905329
85.0030245365854
84.947242518225
84.7326674956922
84.2679049804042
83.6537059277822
83.0692995436473
82.6111447594295
82.3587582707174
82.2696513789915
82.2791559364716
82.322066291613
82.3838278729075
82.4621462141614
82.4908455281575
82.3354295253346
81.8481644935784
80.8575633696475
79.2340836431089
77.051300067796
74.6194006686306
72.4535378976707
71.2422294067138
71.4542795134226
72.8278624829534
74.6097811237471
76.2794800856596
77.6375515375259
78.6657061682679
79.4347275620931
79.9544093822222
80.2231568593269
80.348523487907
80.4369098239193
80.4878565719886
80.5024183993595
80.4783742323844
80.4771384088176
80.5821665683775
80.7608634511847
80.9846529646214
81.2700323862738
81.5821825676351
81.8810434599001
82.2055770960689
82.5714586450717
82.8757296395241
83.0517351077672
83.2035392222032
83.3168572275113
83.4249052313285
83.5671992865623
83.6571692363825
83.6179236726488
83.6023006485484
83.6891855539786
83.7369928359699
83.7150512149994
83.7930854209967
84.0161997556919
84.3028313703059
84.5328613102991
83.9847159253433
82.4527055062963
81.0243503961281
80.8084345498318
81.7849083361768
83.1355729160551
84.4378980340126
85.6050126307822
86.5231536014584
87.1553600507943
87.6067365245947
88.0357245907143
88.4597943242011
88.8644267728001
89.3237257945096
89.8840614476786
90.4505777788621
90.9734990342389
91.4940050196388
92.0768007372483
92.4773666698879
92.7222163739167
92.9989904971715
93.3592667514758
93.5495815208673
93.5966973480615
93.55929986485
93.3068436512386
92.7855917818217
91.8075619465407
89.7470068433524
86.2216871148207
81.1987105106261
75.1582753418099
68.9678440898552
63.0847617612464
57.2892554334687
51.4720066167348
46.1237574523995
42.1518717665701
40.8255801816524
41.8525834780952
44.7497602852544
48.624328239229
52.6402778040561
56.0806855246635
58.7023422350978
60.5027752231304
61.8008311885044
62.9369961929004
64.0951752464058
65.3584155856233
66.8234534086855
68.5579797407157
70.2199140252794
71.3496677039901
72.261348635393
73.0574188267701
73.9043563404843
74.5382942501379
74.8444294159862
75.1112435889614
75.3184064764373
75.2916909852938
75.6470041733807
76.1733816284226
76.7861676592125
77.4350759668681
77.5348458305273
77.3880907704407
78.8966258925744
79.4607136649853
79.2606977583995
79.6519666196003
79.7338872851548
79.7486612949827
80.0502309712315
80.0191731317427
80.4896483328018
80.7972019592093
