1798
3999.43349933624
650.420452594757
1
128
4
99.2783011359276
99.2010791232264
99.2432697684051
99.307798671376
99.3144870561272
99.3386234917813
99.3423362796627
99.2802174529221
99.3129650516316
99.3598296336597
99.3134703263771
99.2691178093476
99.3405563633911
99.3543143453567
99.2716312840794
99.2397226306829
99.2774853077037
99.3605383932079
99.3722537006619
99.3331590536364
99.3128988465438
99.2527807740267
99.287091860964
99.3564476932091
99.3661575253741
99.291507338592
99.3061564070605
99.3147104946728
99.1900163367121
99.1733608039917
99.2725105399315
99.2773753197263
99.2681130613157
99.3643161698402
99.4038177931051
99.3273190500619
99.2710057640986
99.2807346725948
99.3464793354075
99.3750154944708
99.3612496001894
99.3205171634442
99.3330977106203
99.244454842096
99.3069069146467
99.3573752926472
99.4123995086929
99.4035927225979
99.3216111061284
99.2242429968464
99.0932648237114
99.0743733728013
99.1718186915078
99.3399382798043
99.445559579438
99.4401794183054
99.298157304408
99.2663145871728
99.4453417929895
99.1717268955383
99.0596181462099
99.238944593838
99.2499677599017
99.4285224125065
99.4632980721956
99.2842553889496
99.283046655608
99.3561445229274
99.1217107922613
99.2873290295577
99.2411788954608
99.1234764540005
99.3187218398813
99.4376200828686
99.4445109422487
99.2734717101073
99.1464593844667
99.068511721965
99.4930046314687
99.5985411074355
99.5306921403808
99.3229161416949
99.1599594760069
99.2542080781574
99.1864938979616
99.0137651489374
99.2318380442124
99.3825696302585
99.3899476926096
99.3666075303045
99.4421123133137
99.3217080721114
99.3746575285837
99.2557341258105
99.0216541317239
99.3002849874966
99.3449839363253
99.1333952326715
99.5129978990985
99.5445999453208
99.4702283983449
99.2199322328885
99.1347181142715
99.3323969234282
99.1497456813316
99.0418185496952
99.4054884041177
99.3665017993506
99.4079789740872
99.3685156658918
99.2825669753833
99.3223480598635
99.3366352230225
99.1298363971196
99.0758842312077
99.248765787212
99.3135223468509
99.3061472815782
99.3933746058693
99.3114516723183
99.2753316259297
99.1461632553569
99.1442527803884
99.2401254215234
99.1701264166474
99.3629370302831
99.3396992967718
99.2512111806359
99.3618926306538
99.3809716755469
99.3721607393307
99.2198053581576
99.2041915481959
99.2268262175554
99.4828062184675
99.3079806870177
99.5525996851281
99.6630008278615
99.5126951298182
99.3417653667922
99.1463226747791
99.3226575340274
99.3236945245856
99.4242995476503
99.4169206105604
99.2714517681698
99.3467971224919
99.3990985941729
99.3284911131716
99.2888409213917
99.416720968411
99.4369050635499
99.1965077773673
99.1147903042104
99.3142490327816
99.3292324717423
99.3387239339484
99.3978240955093
99.1807174723576
99.0951641575539
99.2565636615247
99.3053851314597
99.2838896864039
99.1933779855206
99.1167224148323
99.087820704103
99.198158610163
99.2256807919639
99.1143467992266
99.144028976365
99.0709794798886
98.9954481948395
98.621302705128
98.8838051665839
99.0971278245401
98.7491394372201
98.8589158918186
99.0346336565046
99.0276190252116
98.8950107076709
98.7096099672489
98.6868340967424
98.7298820155488
98.7034239692534
98.7481878773613
98.4466471209934
98.3036094462045
98.432002153934
98.5242554595644
98.5641667817111
98.4749101201343
98.4121835211227
98.2811446731445
98.2104925071765
98.134487839538
98.087204817344
98.2525611689079
97.9658358752325
98.0246037091892
98.1437699708695
98.1662192100382
98.187663703289
98.039292516566
98.0141457230069
98.0051520448299
97.8084469141122
97.8573818979285
97.8862681582408
97.7797939584489
97.9152369706633
97.9919032683264
97.930418022515
97.9995575198649
98.0119638105039
98.0012858134012
97.9581086965802
98.0002164350582
98.0871170804295
98.0660066003452
97.8305768200656
97.8826575255668
98.0162876470887
97.9943358260817
97.9058081413742
97.8642937054637
97.7797716276448
97.6881858029391
97.6162039115184
97.477534067582
97.4956183559091
97.3735660859795
97.3268026644603
97.5905836913318
97.538032570709
97.31650404635
97.3085632575484
97.5001989730126
97.4556445816694
97.2852661842278
97.1671081572368
97.2018113024582
97.2122785604952
97.0364527640781
96.9681951759079
97.0555975067961
96.969741326471
96.9419797857834
97.0597327849738
97.1395653571724
97.1389586248633
97.0318247107226
96.9330064904849
96.9626671346815
96.9329900164176
96.7050953675947
96.7228785478491
96.9952542801375
97.1409873528154
97.1265324173974
96.9434497061314
96.8711319116823
96.7958621688304
96.6902463509426
96.7518265678345
96.7986679761239
96.7796439705251
96.8287165077895
96.7102260760491
96.6892574930944
96.7785526648969
96.7122804013898
96.6633118119068
96.6601264633384
96.5539426555277
96.6123647197761
96.6465418526506
96.6041023714566
96.4670940555811
96.482581305514
96.4721227359789
96.3890748594414
96.4047123222104
96.3459747073044
96.2206235836015
96.2159724778301
96.2982426348566
96.2665762965533
96.1847653342864
96.2582801480525
96.286879506201
96.1242663703962
95.9798537616145
96.0422163013562
95.9740814599208
95.8650950029016
95.7684716185481
95.7797623557184
95.6925851395046
95.5630120412707
95.503364583722
95.1983309024654
95.079944406278
95.2481864791742
95.2894356989283
95.2485786163928
95.291412818772
95.3849897003831
95.2803313664334
95.1976458416254
95.2475438806603
95.1998439415695
95.09362355608
95.0977867312973
95.1449583025215
95.2054562147312
95.2060557187819
95.2564081750717
95.3475106385791
95.4144629806298
95.3014648653978
95.3303437740485
95.5614364483052
95.6238581499142
95.6657039058949
95.5731076964957
95.4760055311576
95.599451604508
95.7404373058084
95.74621526082
95.5605791717576
95.5117826136929
95.5221529252374
95.5352808704198
95.5256859929748
95.4856802678911
95.474725667257
95.3975641011993
95.4742796559652
95.5970127942681
95.5945092871418
95.5199356313763
95.4929451167046
95.5525334651457
95.4790237108648
95.4112552827283
95.3991312104414
95.3907385899759
95.4508172385726
95.4741702632854
95.3714232549797
95.3942530066757
95.4323256217728
95.4339414137764
95.3304759569069
95.3317894683829
95.3152072371923
95.3124146348529
95.312508149991
95.3256858777926
95.398562005432
95.3940431116148
95.3731278995035
95.3575247952697
95.2315073747847
95.2317674655584
95.3511197344259
95.4466150185802
95.4661312561332
95.3637326076123
95.3825157783999
95.4690101047652
95.4483516773935
95.3632552175048
95.3819235627097
95.468716711091
95.4501021344286
95.3783598163428
95.3605881108193
95.3682311285859
95.3881076226271
95.403789786718
95.3512179763708
95.3520070755944
95.3689152959166
95.4551049100326
95.4840445513755
95.4808627891486
95.5046678584674
95.4941781346701
95.3884686712111
95.339642573321
95.4339541179258
95.5465612853861
95.6213204829343
95.6541430959081
95.5574859502458
95.5067420638249
95.5761192200036
95.6002634460939
95.6685261688496
95.7467417921244
95.648136543135
95.6110696097198
95.6303907186303
95.7492100329169
95.7744504603661
95.7247105317823
95.7020426555972
95.5910211549067
95.5978399666601
95.7389356806355
95.8070597747943
95.9460147496795
95.9163272458831
95.7668747031908
95.79757009991
95.8899709063247
95.9202340430683
95.9060698412336
95.867898654813
95.9140895981852
95.9405453498593
95.8718804315691
95.8492164934522
96.0018589572528
96.0794926765438
95.9952611672671
95.9558100705165
96.0833883669703
96.0749895026836
95.9754118628917
95.9579110337249
96.0163928341022
96.0629372633982
96.0657166807732
96.0436198846166
96.0843250433661
96.0888797727766
96.1525915627607
96.2054378706583
96.1832787819274
96.2382190977814
96.3028621081988
96.277311276495
96.3287712619695
96.3247463151677
96.30259400072
96.3653684680374
96.4243757532633
96.3757602133044
96.372284513643
96.3908039272315
96.3989321158062
96.403211186418
96.3611805309536
96.3771989452911
96.4095112424848
96.4171897875664
96.4518295453524
96.4750242142269
96.4659871963741
96.5046625568185
96.547103972117
96.5029795215366
96.4665425061237
96.4456999296236
96.386176589075
96.3528801606728
96.3956897751062
96.4254311888084
96.4322280319526
96.452294887471
96.445795542529
96.3917633905741
96.4143358675584
96.4546703664431
96.4455014012476
96.3750573399395
96.3255377065401
96.2947032660029
96.2539492326746
96.2345947386539
96.2603181840239
96.2877502160266
96.3447405591472
96.3456898786733
96.276882431883
96.2905830007718
96.3870039988902
96.2920697477974
96.1251107392542
96.0464423506521
96.0498889933928
96.039879162324
96.033657203049
96.0487804156684
96.0721912456821
96.0985536682834
96.0529236950541
96.0059416739239
96.0475280320301
96.0165327596722
95.9936352127794
96.0482072717146
96.0754917939346
96.0637036391538
96.0704541124874
96.0492333680468
96.0522448548044
96.1062542581866
96.1977154046282
96.3318087754914
96.493906651387
96.5957113412203
96.6422441483377
96.7101418965337
96.8047516293555
96.8173543948002
96.7449655937459
96.6774704225237
96.6943646856471
96.733356154814
96.7550346014271
96.7073963798475
96.6042962026682
96.5658742146204
96.536160312883
96.4918692135257
96.4225491921545
96.3523035224394
96.315032743098
96.244755989623
96.0614863738031
95.953381566398
95.8607830177396
95.6760174979735
95.5843785715993
95.558638647841
95.4515307624481
95.305133331174
95.1953723876427
95.0337224953922
94.8095282711022
94.6298101475607
94.4268522944356
94.1550859593955
93.8845889729811
93.6099718015133
93.3199918882946
92.9439361620388
92.5858504028098
92.2387428943052
91.8069226790773
91.3438237581257
90.8895532299998
90.4011162688537
89.9159786619426
89.412926313205
89.0171854438613
88.7130826820899
88.3865065605968
88.1022386890759
87.9019848831886
87.6352241162515
87.322567720787
87.0813442916645
86.7243890180798
86.3192907018007
85.960955484361
85.5061440326742
85.0048558711668
84.5754346197031
84.1094342108645
83.6514812175958
83.2139495188718
82.8237938284005
82.695870786357
82.8028695554181
82.9880591587385
83.396334993654
83.9591483569546
84.6393380905203
85.3605627412394
85.9620801916848
86.5292956898057
87.0173878358326
87.4403679657418
87.8259963532566
88.160395076002
88.4099215012199
88.5641682795033
88.7231702246559
88.9229714591534
89.0590757109574
89.1737587887442
89.417005703291
89.7536353914556
90.0659969311594
90.3515252548055
90.6319810905811
90.8922691045069
91.0956532750637
91.2013770176309
91.2019740786184
91.1731004976915
91.0280072513947
90.811064062341
90.5969927105729
90.3643106540107
89.9648984906369
89.423338070582
88.8778771993033
88.3244087780303
87.8309668156108
87.5555049323167
87.5240568562191
87.8896679515143
88.6214813908602
89.5302680522479
90.4187053557505
91.259866145109
92.0830972960995
92.8051777939151
93.3851697889017
93.7721754030315
94.118300337672
94.4608460203288
94.7270431493594
94.9227093337547
95.1274762805955
95.2725513687306
95.2909202395058
95.4106587200744
95.5567447512263
95.6228000388348
95.7177013372399
95.748154550949
95.7623606324334
95.8665048387575
95.9997944082121
96.0572807024975
96.0551548891369
96.033902003953
96.0724745900419
96.1838563754602
96.3054721184575
96.3516072712468
96.3232226064227
96.3661632510604
96.4396042350744
96.5112021498808
96.5778539385856
96.5859476036122
96.585349255357
96.5821731349315
96.6057597855949
96.7054742596852
96.7444802392025
96.7483462686605
96.7651834193357
96.7759785282033
96.8190500099012
96.8376919180399
96.8088180953584
96.8155537913243
96.8135707215687
96.7829321628139
96.7954704947983
96.8384325463237
96.8540247699656
96.8948041620599
96.9482830137152
96.9766902001396
96.9554300812898
96.9674594401488
97.0049637039227
97.0085681538285
97.033806112596
97.050556913138
97.0177075739334
96.9972049267709
97.0256623253885
97.0759421612503
97.1244525176964
97.1406924616307
97.146281437622
97.1618467695126
97.1898764529652
97.1928456582067
97.192841453857
97.2377663999829
97.25218946453
97.2531982755305
97.265605556705
97.2798627689534
97.3181275154118
97.3285414069928
97.3264121830084
97.3756445288719
97.3694445000392
97.3397083677048
97.3225013326422
97.3127925153087
97.3256333292613
97.3238543562512
97.3368460922707
97.3763645589793
97.3473814993055
97.2907061205257
97.3306510781016
97.3955420575115
97.3772197534358
97.3415861818331
97.3034385697065
97.32183293825
97.3752467445283
97.4160183714605
97.3964261505745
97.3700213620581
97.3568211445553
97.3103583563457
97.3177899949903
97.3410974646126
97.3625880046826
97.4135511476757
97.4272614216621
97.4310201396524
97.4634402889416
97.4943827585473
97.4770458248172
97.483818592529
97.4837046883341
97.4373730181667
97.4304139991833
97.4587419935047
97.4365590866741
97.4470123401414
97.508927240017
97.5766074416793
97.6044805651349
97.5942189485045
97.5596290188919
97.6024870940781
97.7128637912339
97.7306930377848
97.6765181616256
97.717434224929
97.7819488219726
97.7826235670561
97.7236727066084
97.7287790228076
97.7302089874357
97.7112463294849
97.7558162956171
97.8567665287935
97.8604170183109
97.8423086665846
97.8669927024282
97.8820412078214
97.8898364250556
97.8125146732031
97.8214739427885
97.8744660375206
97.8243024410844
97.8195445139581
97.8936273946111
97.9630360385186
97.900608492945
97.8209859610633
97.8084584270158
97.9080019028661
98.0372161215895
97.9825596088897
97.9342726153883
98.0005054244843
97.976414120929
97.8817148844603
97.8795256595494
98.0145247856752
98.032795137923
97.9156106595647
97.9341201655131
97.9899307103094
97.9545261111278
97.9788695479025
97.989929665125
97.9827652948837
97.961921733941
97.9600603020961
97.9990119987958
97.9557580323539
97.8855227745389
97.9590278922819
98.0579767056474
98.0786785209917
98.0567651184009
98.049801983432
98.0396970982839
97.9458599456172
97.9062403155124
97.9648022940561
98.0557545016716
98.0753576626082
98.1103006162067
98.1339161202404
98.077962198474
98.1123551570397
98.2083416960502
98.1290985175773
98.0298052464336
98.117017429746
98.206520296294
98.2669061085936
98.2378541573306
98.2205649878505
98.231662011089
98.2284006526842
98.2899423667993
98.2980666129052
98.2226848802207
98.1419897057395
98.1300244892219
98.179772459805
98.2070889728214
98.2253613945119
98.2261593857139
98.2645849150867
98.3302375744051
98.2756054162679
98.2344596691277
98.2844221221687
98.3490620758881
98.337816827271
98.2684754599291
98.275558293058
98.3222204964772
98.3542579173001
98.3260596838174
98.2875788559575
98.3562844817529
98.423943344491
98.3437881034498
98.2806399379232
98.2622469476449
98.2459196991653
98.2862890840435
98.3355756970123
98.2864386564093
98.1871863109856
98.1725914128129
98.1746143401841
98.182762333037
98.2286380073567
98.2052235408849
98.1612979518846
98.1492832190004
98.0910181048
98.0531055794252
98.0703952170596
98.0729895958472
98.0290642281576
97.9896142186465
97.9625282037119
97.9521292670842
97.9599329084286
97.9702159863475
97.9372247796036
97.949672254746
97.9351583501182
97.8628893963351
97.8639110942234
97.9216895871192
97.9677877395308
97.9748764541516
97.9940090526979
98.074162723987
98.1786513459951
98.2522534256074
98.2227093320666
98.1827291353572
98.1406643179511
98.1943789969532
98.2267130905253
98.2041497857605
98.2106348572588
98.2251940512706
98.22010675506
98.1403523951118
98.0765652894226
98.1537018266857
98.2704459473425
98.2973657111336
98.2360292596699
98.2007493936045
98.2297148749031
98.2426495702882
98.2258809472639
98.2197231734654
98.0593354676864
97.9704586340279
98.0535482148827
98.1023719276659
98.1449755361257
98.2529058818304
98.3006894676353
98.2987607980089
98.3431914555342
98.3424415115894
98.3029932392905
98.3612158989151
98.4047173975099
98.3415525659173
98.280869190958
98.284372344044
98.3266067065955
98.3792917403104
98.4104417681261
98.4026377261741
98.3691786101124
98.3235973998391
98.4234176117522
98.4679776110236
98.4352102075163
98.4678349380498
98.5165543220357
98.5479017048152
98.6692780681331
98.7634890172492
98.8404688717344
98.9124229950322
98.9293463872869
98.9631990149208
99.0880435786055
99.0978214662541
98.9995529694031
99.098235202024
99.1537513049499
99.0902215729999
99.2001136451588
99.2319130543033
99.0675140321577
99.0428583924456
99.2743422739483
99.4274262724649
99.3253830813488
99.3239697368546
99.4714237457218
99.5993322850969
99.5081358535995
99.3142003795284
99.1967322609706
99.249647266076
99.4297393246322
99.3916523157844
99.2257801640041
99.4425445821559
99.6625674660376
99.5637242826072
99.4694307504921
99.6614400466887
99.7846998187642
99.8273458630996
99.9589586949152
99.8119983029356
99.6811618954813
99.9429028846522
100.11036790052
99.9936803415211
99.9229209092749
99.7634021249631
99.6924800971119
99.8867429311898
100.208914316846
100.330964707477
100.197335298129
99.9904514177134
99.8220502901127
99.7929213891422
99.6671189116028
99.5394614350438
99.8267289049929
100.037810182495
100.057411514771
100.136322052634
100.311133035908
100.644798803517
100.923916599227
100.971502927128
100.559971488803
100.267655571405
99.9200973779837
99.6986060100908
99.9667367201246
99.9006686218552
99.4812727778189
99.398020025735
99.3350742501041
99.5130096552454
99.5591726684637
99.1261193495469
99.1202914062858
99.3502354612831
99.1683475578239
99.0575187272698
98.9713496199648
98.8609058723395
98.8204990703838
98.8313220821733
98.8741680084248
98.9039257503191
98.9148923139937
99.0291307040776
99.0202446212953
98.8486386011916
98.7568000601188
98.8315067123491
98.8513607212789
98.7613792627871
98.8519107542118
98.9185771637812
98.8248858126459
98.9810767803938
99.1894170535144
99.154577559918
98.9697309699222
98.825550616515
98.7734804852864
98.7670097797419
98.7714534270297
98.8637613555903
98.8701488615789
98.8633968692288
99.0756859816409
99.201827151877
99.1792762216619
99.3919155212747
99.4054992544691
99.3227791225405
99.3762342838698
99.4339507503456
99.413758016626
99.4649937990648
99.5357241221114
99.6148799698787
99.6956033692156
99.6470169195272
99.6033364921671
99.8955772594721
100.188894647343
100.494193309292
100.430849921992
100.199550770445
100.426315134067
100.532890669147
100.195773738284
100.186037008905
100.253595020343
100.173003552126
100.122639554683
100.008662964773
99.7922145044075
99.9428421411372
100.245386334915
100.204272291676
99.9008776032536
99.7585045839054
99.8993130208107
100.041237274655
100.064149992472
99.9895833786164
99.8155634679915
99.8115365294182
99.8670633866014
99.910315747182
99.9037782376914
99.7249832638176
99.4019475038974
99.4512698219097
99.5623449371577
99.6048648033591
99.6395473458088
99.4945624800651
99.4381962350915
99.6651415262432
99.9021962592684
100.278560615687
100.279871552713
99.9371479209912
99.6946745710898
99.5927239438611
99.2378022211209
99.0190464572144
98.8733609370188
99.0763773572872
99.4900901914603
99.1494341645901
98.5354789067518
98.3428445272003
98.2511309792217
98.3367123734127
98.5445260637859
98.5678222138149
98.5050870116089
98.6417620203793
98.5723544352201
98.4664812159634
98.4332677346851
98.5344813267255
98.6175072316451
98.5200183689329
98.522384194766
98.7743510365954
98.7725942720212
98.6667428612793
98.656754973129
98.6860282306995
98.7282238256567
98.7757560350908
98.7444755542725
98.6938424535815
98.6829134976313
98.7222682952216
98.6593843767365
98.6247968980022
98.6827279933083
98.7847824880885
98.8564749294521
98.8523773382425
98.7707868610417
98.8034681772085
98.8501746958662
98.8006418351957
98.7158155883123
98.7264954109372
98.760252880413
98.8342202840856
98.7683538572057
98.7261204871779
98.7570304851076
98.759455261646
98.7323745022186
98.7272418700276
98.66959523905
98.6675774743952
98.6996577723067
98.6917287266163
98.6928967075796
98.6982257100118
98.6394846701504
98.6215151411117
98.5731825863632
98.5500618850441
98.4788194856716
98.4048575178377
98.2921295517571
98.2151103451017
98.2209106977331
98.2641196059985
98.1536660934277
98.0269042342494
97.9663221194371
97.9432332802951
97.8666876140527
97.7885308808532
97.7005468442074
97.6332946125098
97.5999162303432
97.6263144747455
97.6527496743625
97.5741828326063
97.5224397628328
97.5524810854327
97.5319095336628
97.4941553391283
97.4993766303744
97.5148375301086
97.5239943679542
97.4897985685598
97.4459525815626
97.4536617204826
97.4280377233119
97.3805541263148
97.3287389798857
97.2513403646722
97.2030004289784
97.238154662199
97.1780940404389
97.0576226604161
97.0190725364241
96.9587935481225
96.8828972464544
96.8326075593459
96.7852481291535
96.6226590138113
96.5211295589893
96.4575779250097
96.3897427407937
96.2838855240784
96.1715812077655
95.9539187980027
95.7126905085869
95.480828431755
95.205183985494
94.8229030226272
94.2669630605171
93.6508090845217
92.8421617303576
91.8489578917358
90.5886262458907
89.022570347947
86.8409343536711
84.1888345616122
80.9366136426399
76.8977874025922
73.4390816987633
69.3782359767156
64.6792214056736
61.0969211893976
57.4326642406166
53.9213059907417
50.5755045120329
47.332741259705
44.3606290182968
41.5744579460058
38.7151824704787
36.8736063018161
35.9914709581624
35.5649071031793
35.6688146073301
36.2004006569793
37.5730607044402
40.685217014105
42.4681454425759
44.5550451444902
50.356274985237
53.0713086896638
56.9318650591863
60.8991456256162
61.922078462282
63.0849674771433
64.5592619338157
64.222492929162
65.6175850401157
70.4185120026675
72.0715353541829
72.1218467054495
71.6797347808593
72.8017591423938
74.741496561824
74.9206537265407
75.8843700432201
78.2453789545961
78.92804272584
78.6552456897276
79.681881487973
81.1907812534663
81.7228559656567
81.0646420358601
79.183851589046
81.4032040839356
85.1498739101854
84.7193481589577
83.8039606504778
85.183588513043
86.1620067782776
86.1004750322138
85.7685768195725
85.1221548544013
85.1285903320669
86.9893528369784
87.8378693735983
87.5158032983081
87.2583313737122
87.5166359130307
87.6930374152017
88.0224288708648
88.488210082353
88.1649046375102
87.4576397637151
87.5799321081591
87.8921067999105
87.8125105822341
87.8964700202737
88.2945618230104
88.7884874635992
89.1600137977
89.500289642884
89.8627025125161
90.1466739680619
90.2987885928204
90.409731845062
90.5401453835358
90.633693173553
90.6789121647686
90.6262868528476
90.3138266139677
89.5880715402911
88.3771626884362
86.7944466111328
85.3205786737184
85.2080571573973
87.1021753780891
88.1966303170771
88.6413802598445
89.6853436658961
90.7399357553596
91.2551637936366
91.5200488752502
91.1726879372256
90.5589762319672
91.808558411065
92.7289091853497
92.838162159468
92.8010590395682
92.7868449014592
92.9437754527705
92.924756171857
92.7890447959808
92.7112680153803
92.626215933313
93.2771955246687
93.6334122944049
93.4453428431978
93.2667333283381
93.3801577548068
93.2681044511012
93.0731527445112
93.0772946932822
93.1382538346063
93.1353579005021
93.4214867540004
93.6770845049696
93.6557774994637
93.6963016242433
93.5142787398843
92.9174143893251
91.833781931891
89.7350980860953
87.4172196720844
87.3262179887736
88.4700324025981
90.2047616732128
91.9368375984856
93.5416029176646
94.4976914453657
94.7014631858899
94.61943651786
94.7443132386326
94.8404531389828
94.6965017007728
94.3708763013457
93.8969510181653
93.3147807177944
92.5915935930773
91.7605999998321
91.0378385528025
90.4488049570979
89.9281390773528
89.0266489510593
87.9875686416715
87.1123759418223
86.4767446922292
85.5338983375036
84.2838264716756
83.1473803076389
82.5855695388496
81.7740391804312
80.9200647844987
80.6368411164241
81.2475421231559
82.5592801510809
83.6536482187811
84.5858304720028
85.2684263561011
85.642080952274
86.6973405497571
88.407410979601
89.3531120121806
90.1093060229917
90.9935604053585
91.6008146393269
91.7921582821622
91.7752642797689
91.5228902862066
90.8588880991914
89.7956370895433
87.9359305012632
84.6078263713132
79.64281690101
73.9617520380358
70.044458154876
69.3016052783985
71.8328419346605
75.6109102148983
78.2935312038559
80.38318124809
82.1415405733369
83.1579091617652
84.0406057684989
84.5827128464566
84.6753296065901
84.8244258614671
85.3679895765762
85.8069541845406
85.8198744349057
85.5295128801412
84.8658321166471
83.988354251227
83.0861637797078
82.5221611985599
82.2719498553823
82.3014050254478
83.1411679703187
84.5567351378927
86.1839127294794
88.0918707746505
89.5828316835595
90.3368877632828
90.7492793991637
91.0117579220015
91.1303479046106
91.1178590856836
90.9637230677015
90.6224878993489
90.0784773164455
89.3376971452833
88.4966599846265
87.8630920816635
87.8782239209148
88.4669191382824
89.2981527447856
90.0549605436366
90.495495929861
90.5009126333712
90.1310931085508
89.4874196215066
88.6708970281701
87.781078362642
86.8895717905578
86.071114443374
85.3261693431195
84.6408555105354
83.9415432711626
83.0590370603458
81.9736151068161
80.8075301361517
79.6452445213794
78.4294651707171
76.9303803701875
74.9464549477247
72.5355783592876
69.983492063557
67.5908609557908
65.4509898644914
63.5556215478316
61.8071418224962
60.0562185796641
58.2158581773543
56.3059057587458
54.3704806202914
52.4740353499542
50.6054548960612
48.7732757928038
46.9712431190143
45.1804071410006
43.3264663786
41.3974359246729
39.4769658410397
37.6896386957104
36.1607465293362
35.0972652067533
34.5190449660148
34.205536677086
33.8617992289431
33.2807967636599
32.3916427794971
31.2705517658477
29.9966291440843
28.6786806135581
27.4269852303932
26.358535079402
25.5697759923444
25.2113262699917
25.3530434291538
26.0170768352264
27.2114300056659
28.9274735296238
31.0565897669978
33.4878352646276
36.0297883776249
38.4827622429944
40.8211643751858
43.2150901827713
45.7289363129058
48.2701742730752
50.7478684699356
53.1519516394302
55.402868400291
57.4949690189426
59.4832106810528
61.3839571759721
63.1939025596516
64.9349833060642
66.6151225323654
68.2193405141597
69.7729647294417
71.3319790650043
72.8464378747163
74.2499472061112
75.47050534348
76.3861131847925
76.8774489381357
76.8822834604135
76.4232105462957
75.6585932049109
74.8576912326193
74.3782622804749
74.5499319176346
75.5933003683112
77.3131293409924
79.1245687756649
80.5583971922118
81.5209654647276
82.1156327677715
82.3686921308051
82.2462959351154
81.8234673681502
81.1799274289332
80.3876955392177
79.4934261265918
78.3940726380521
77.0181450501604
75.4014322213814
73.5764570247829
71.6749332905071
69.7981041478656
67.9693049503896
66.1550353599548
64.2707950984613
62.2469494553886
60.0073276152256
57.4497011028738
54.5748068725281
51.5062694619318
48.4752432538644
45.7852465860015
43.740497386066
42.5659401176641
42.4433401308147
43.2413532857238
44.242074241636
44.321014786702
42.8987029320507
40.3404940116277
37.3881479563238
34.5302580132054
32.0375573450337
30.0280479805412
28.546506207124
27.5659919628805
27.0359719101166
26.8859812323466
27.0111391907843
27.2519648444337
27.5858972001952
28.0616692110692
28.8830697403897
30.2246773162624
32.1113659349744
34.3938666126151
36.889355123069
39.3589856449874
41.7046984827685
43.9209054365559
46.0511137104594
48.0825410556972
49.9679897213026
51.7025939620744
53.240944462473
54.4496455279156
55.2574506310997
55.6342752805516
55.619756028214
55.3065181797767
54.8235475604627
54.3371411378509
54.0331655157759
54.0312121040035
54.3843454704701
55.0315593661372
55.8953469651171
56.8774486869215
57.8715301087105
58.8565222939544
59.8577359758214
60.6650855483663
60.5990753606715
58.2639801739161
52.5541760576258
44.5530101753047
37.5816927752847
34.8401669057066
37.0293679159561
41.8053332075022
46.530849713387
50.4368509345493
53.6148052031867
56.1517289030696
58.2302785415966
59.9808510777684
61.456757676639
62.7091714534988
63.7491149000007
64.5234502084736
65.0413981386325
65.3510686705147
65.530926458145
65.6858058911243
65.8470511561475
65.9211807353713
65.8339473276068
65.496882677158
64.9375017790588
64.2746772253797
63.6561092415747
63.2114920806427
62.9897644596968
62.9569174797296
63.0478054158339
63.1095662275351
62.9109817720063
62.3407698899479
61.7263401003708
61.5438279442764
61.9024098473248
62.5088948289735
63.1474091715744
63.8528696815998
64.7474339923495
65.8584797307945
67.1044171848048
68.3313184459116
69.3916582665216
70.250461734888
70.9963395915111
71.6192641907778
72.1551684366927
72.6508344943557
73.1068871698814
73.569654947505
74.0909549703148
74.6507944046899
75.1943238550037
75.7051955535546
76.176730438101
76.5175553604722
76.7111979367509
76.7382616373989
76.4972201029147
75.9090729539076
74.9704010934952
73.8396708907029
72.7925507101954
72.0492445414147
71.6726660173812
71.5555410680999
71.5514401001184
71.5834703131444
71.6388284542494
71.699668270044
71.6379699605433
71.224675897238
70.2479962720985
68.4880660155557
65.819594407927
62.3955809045177
58.7748855689803
55.8647088005524
54.7083713597274
55.6938793343431
58.2007441533846
61.1902270425808
63.8823284228764
66.0222867737147
67.6204958192459
68.7184081884226
69.3897821526812
69.7324735187647
69.9000018376794
69.9828083649755
69.9930271006434
69.969310277944
69.9739533659823
70.0424439349393
70.2325016233286
70.5196384985378
70.9071319233105
71.4104047829682
71.9578555221914
72.4850089909092
73.0284654902666
73.5535927440759
73.9842015671933
74.3089725271123
74.5506590607539
74.7306169480928
74.8638533166759
74.9835231173488
75.0867063311043
75.1225226946923
75.1184032196567
75.1246125876291
75.1001532272998
75.0970001730864
75.2052803102497
75.5056464280995
76.0201214713616
76.3216982534688
75.2421271215165
72.7070595555371
70.6963732418542
70.8129973059419
72.5187076038951
74.6917528124325
76.8853429243036
78.7585368095282
80.1736375064626
81.2039778412278
81.9239721477585
82.5322442804011
83.0714367193861
83.6162007454642
84.34096855331
85.2107121001825
86.2164604194259
87.1522011752987
87.8588336898621
88.5125908175622
89.1091276922146
89.5317415131166
89.891591532104
90.288008044196
90.5858301197052
90.6516636429918
90.4600846176352
89.8548156232272
88.706567594058
86.7625096854395
83.1258410767721
77.1520034732132
69.1594327416165
60.2591478147517
51.5869094890433
43.6527562319123
36.1765297203766
28.9709677162663
22.7261329300976
18.7054787141147
18.1213521685783
20.4907727344203
24.8754872968505
30.3197007380299
35.7737194140697
40.1962167822898
43.3290167184489
45.5192440103783
47.2822439197571
48.8852103890441
50.6313841790947
52.4024623108214
54.5736806662007
56.9662267227288
59.0902624304439
60.8627064963468
62.2832789661134
63.3620927107701
64.3471187161022
65.288137991768
65.9552935957183
66.1693594671036
65.9948362123133
66.0496383108165
66.9759403991889
68.0334232241424
69.0267502023997
69.8367003050765
69.9637102395056
70.0225648734006
71.8754329632506
72.1543640447652
71.914616888941
72.4548253264773
72.9046161877409
73.1446158665906
73.3938927976446
73.5874980503074
73.9504806722409
74.1184722039367
