1798
3999.43349933624
650.420452594757
1
128
4
99.8738874535824
99.8134315567443
99.7896340955589
99.8185171655689
99.884035584138
99.9847902941789
99.9821137274559
99.8843183550573
99.8635615201911
99.9271690008832
99.8319735823181
99.7511148810856
99.8287705319523
99.9275613350612
99.9366804295042
99.8528515226849
99.8347539482549
99.9500773097461
99.9264111415595
99.8656654127424
99.8301098104668
99.7748395831063
99.8178883023856
99.8855085858904
99.8384842437835
99.779523887865
99.7862511631571
99.8517689047943
99.7845280825898
99.791234297052
99.8897158813272
99.8420717057795
99.799260961736
99.9235589533956
99.8496240250917
99.7737335815225
99.7660439024692
99.8826232150545
99.8791306254939
99.8614395348102
99.9297353871918
99.8585776734732
99.770142153029
99.7730279733943
99.9490494846182
99.9464364105156
99.9736048215642
99.9785384727101
99.82073124568
99.5932170523978
99.3666685536275
99.4646961490706
99.5900256831676
99.874185218657
99.9785432007629
99.8923451880922
99.7114927287393
99.7057181924508
99.9142001818806
99.5289867035541
99.4688052175879
99.7093450617555
99.5912783816881
99.8300977208488
100.037741896563
99.8710899853342
99.792081398682
99.734204327636
99.2726003159352
99.7206878707962
99.69225051562
99.5606602404051
99.7016755478826
99.8819624377227
99.8862491493394
99.6219664837233
99.3412774353071
99.2331065505709
99.8831190963936
100.125325114801
100.141877434675
99.9226662491835
99.6330315584041
99.5749811527692
99.4474460286553
99.3525202345713
99.7131334677411
99.9080925683632
99.8305687458125
99.8241669177256
100.013861197187
99.7232466486238
99.7310255224869
99.6809260979927
99.2301644956154
99.6114325651876
99.7971783967406
99.5522139179912
99.9976942544099
99.9380657116066
99.9609816959226
99.7160126529392
99.4710384772453
99.7417173754541
99.4578685218217
99.4183746725982
100.003946609805
99.9316416915945
99.9974136726963
99.9860727121604
99.9393191549036
99.9669745795541
99.9102168623832
99.6456750241666
99.5976714327124
99.7433492317914
99.7320265636111
99.7577086319829
99.9408445005205
99.8883698447474
99.8940722179009
99.6367873484328
99.5579148056834
99.7780427731118
99.7065171529385
99.9311808980297
99.8552851985507
99.67144967922
99.7697890790825
99.793871058773
99.6857344096088
99.334474928415
99.304485659129
99.4354000274224
99.7930295088599
99.3701099616638
99.944089676754
100.160343625632
99.9244680289833
99.6924377083158
99.4505275266472
99.5744089105624
99.667176033452
100.058319269194
100.053094820827
99.8146088680077
99.8404434243584
99.8079192575548
99.7692045142373
99.7885791060726
99.8449496838002
99.7712260901179
99.4895102377133
99.4932967517692
99.7070082664037
99.8643502229863
99.9832037715135
100.012921255574
99.7454418888745
99.6902810297207
99.8023049171597
99.794194643803
99.7288665352291
99.5714013466984
99.4864814839823
99.4644395781895
99.7900961738468
100.028724369871
99.946774939578
99.9145889056313
99.6268100287631
99.5924638657562
99.1816729063098
99.5167538711959
99.6586393156381
99.3510022373155
99.5651472609771
99.727498218981
99.7488263796192
99.6903051974922
99.5063641122206
99.499372335999
99.3981184492081
99.3126071760368
99.5464771350546
99.1851266046535
98.9114878477804
98.9824183247488
99.300540022616
99.5176139618111
99.4508062431921
99.4704993235651
99.3084028221061
99.2298226688178
99.1058080864467
99.0509027716836
99.0722350461635
98.5167971051404
98.6277198308596
99.0135133972619
99.1680026371961
99.1493522704106
98.8464473327034
98.6792682972529
98.8082930476149
98.8321819792987
98.7870260600425
98.7081939842686
98.6121352041629
98.824854472356
98.9949599707008
98.8397562549966
98.7334612803318
98.7770060816746
98.7749033566962
98.654061299369
98.6826914896669
98.8053161961104
98.9053576387845
98.6356287504626
98.5437275148696
98.8063607811075
98.8349349189801
98.698413414738
98.7230722285055
98.6344920653961
98.5912785336341
98.5058177334917
98.4188432922174
98.4506917174309
98.1967412714827
98.0339375682259
98.2214639489639
98.3737686563593
98.2724902194417
98.2561083089068
98.3398075938948
98.3696496800041
98.3039206878645
98.2591162386117
98.2462972072897
98.0628006868819
97.828577521193
97.7479480993828
97.9663585995587
98.0618429193094
98.079553336842
98.1162513129913
98.1023697947019
98.0776551656759
97.9439949957758
97.828463541967
97.6987469263287
97.564781663587
97.524987423831
97.668619601219
97.852470501677
98.029649453375
97.9815398068294
97.7128776740815
97.7062702626995
97.6548386049311
97.5036905458248
97.6691395577671
97.6881805731845
97.4772205939116
97.5612693210782
97.569272904428
97.4555728074501
97.4696370931242
97.4909639632908
97.4638560969244
97.3983518847923
97.3709836053839
97.4253431831534
97.4045667039615
97.2837347897845
97.1775305507224
97.2209098578604
97.2767658523404
97.2423147354456
97.2849944527986
97.2087287585304
97.0069451675812
96.9003618013925
96.9998838402648
96.989952299487
96.9305235864493
97.0677193540812
97.1279249389224
97.023466706253
96.8066563697321
96.8037631267904
96.9557374309316
96.8674884864759
96.6181726604389
96.6813419319737
96.6973736730561
96.6439549775226
96.6628614862796
96.4602869312832
96.2437542582634
96.3212539258554
96.3892046297494
96.3607125988971
96.4079349833248
96.4735823262038
96.4343638346662
96.4014629911165
96.4330236304506
96.3867681823002
96.2229556478516
96.193782304972
96.2385905876143
96.1780590896185
96.19076800898
96.2727153660032
96.252557839666
96.2881055116791
96.2536912391941
96.2009518506582
96.3389814652979
96.3643526355914
96.323269285185
96.2476838854443
96.2386794394084
96.2975378052728
96.359751463151
96.3839362299068
96.2112850378128
96.1284153832044
96.0959743783133
96.0971631448965
96.215223668432
96.21236031982
96.0807958894071
96.0402106992058
96.1466085910827
96.1458039016545
96.1140258589297
96.0851478087248
96.0734422641267
96.1319331612637
96.1504503859747
96.0728082697472
95.8834583239721
95.8035856737111
95.9438085001419
95.9560084531216
95.9109531355958
95.9673432167339
95.947798568428
95.8956014039406
95.8584398099884
95.8511543552317
95.8633972674883
95.8625146052915
95.8845350722118
95.886383422398
95.9224291908625
95.8995917042566
95.8089811470613
95.7071615587412
95.6337382650246
95.5864290600807
95.6529201879474
95.7569646160376
95.8173666791548
95.7173087758705
95.6144015818906
95.6949635072845
95.7987313126281
95.7294499459087
95.726383748037
95.8006129533543
95.6981830790186
95.5815092484793
95.5984693422805
95.6681836027507
95.7275932946227
95.7273933183671
95.6218943334059
95.6469609954073
95.6248408166849
95.5866458967317
95.6027691205165
95.6869739005041
95.7569516639273
95.6313476451091
95.4797466403068
95.5006260877673
95.6362557665841
95.6662008886229
95.7155098326945
95.7446542822467
95.7250491395995
95.7010356400778
95.75462235439
95.8376781472729
95.8807829466996
95.8844408099491
95.7959348949087
95.7682491239087
95.7987524402295
95.8793407457001
95.9104270035638
95.8994817136396
95.89809366834
95.8550075631793
95.8651116579121
95.9753265986135
96.0679141183639
96.2006441738353
96.1438294385424
95.9837831163753
96.022159663933
96.1687951753298
96.1719742427845
96.0854028367161
96.0636866000985
96.1242642930652
96.18616467699
96.1591032832303
96.1400863053064
96.1563240348561
96.2416948761254
96.2354971528643
96.2540162301673
96.3091989215035
96.2891291755727
96.1773754459785
96.1771572859922
96.2451750056658
96.3147549151731
96.3835153341463
96.4041156512271
96.3801667641984
96.3391290899684
96.4275613028995
96.4862255562804
96.4406200189991
96.496192459357
96.5832208437264
96.561642009239
96.5784686309096
96.6008810012369
96.6234385596547
96.6633866835672
96.7036047351342
96.6479367631583
96.7037981810882
96.7425142775274
96.7367487913551
96.7966178714411
96.8052906070045
96.8126440793062
96.8717913526296
96.888970093253
96.8389415409349
96.8383684091874
96.8810602568784
96.8925241373225
96.9184041782296
96.9405155637734
96.9655386305738
96.9377659726098
96.873654232941
96.8559556815628
96.9023449662273
96.916318510024
96.9129594741644
96.9409515114145
96.93597843555
96.9421736477961
97.0092837847892
97.03413100769
97.029746843819
97.0070501073222
96.9748578964677
96.9579313344949
96.9643221108674
96.9482290949748
96.971488870971
96.9947550519782
96.9823529281559
96.9723112274106
96.9610444214702
96.9768079330759
97.0067894331482
96.9635894200249
96.9135472295827
96.8645399290041
96.8595742562597
96.9294399483731
96.9772221903624
96.9525734933639
96.8774309076109
96.8783294625263
96.9014136528391
96.8762916568686
96.8597592544017
96.8669882147843
96.9340169487301
96.9649756418444
96.9827050987709
96.9755305807076
96.8948305931268
96.8127268814447
96.8585832452235
96.9709119769835
97.0561166170293
97.1183811322743
97.1616600646086
97.181198768923
97.2513304886639
97.3257910780338
97.3486607115537
97.3758056283621
97.3411979776917
97.2830479344473
97.3246688697549
97.4025865091561
97.3983262310896
97.3603992508532
97.3373401321455
97.3387334387806
97.370387472304
97.3751318010321
97.3635077858904
97.3605070110704
97.3676049741688
97.3658383758717
97.2825312012059
97.1922208450763
97.1123371422929
97.0454331766964
97.0242334965886
96.9464731157378
96.8784611583013
96.8475552417877
96.823080489875
96.8165193412839
96.7192798415304
96.6127258779802
96.5023072450131
96.4011726487966
96.2873039846387
96.1342131350236
96.0329065722736
95.8914535970924
95.6752235040563
95.5118998485278
95.367098480087
95.1628916355628
94.9370722788551
94.6629607471186
94.3897018934985
94.1626359311035
93.9333653479342
93.7312792635896
93.5972456696958
93.471873906565
93.3173276178922
93.1906067257861
93.1313725555254
93.0743047566901
92.9250643891824
92.777425523739
92.6151806224194
92.405328680574
92.2000809462035
91.9922196569035
91.7604073901511
91.5459885531531
91.2484844674993
90.942857888234
90.7740558546843
90.646231487021
90.5521251624419
90.6129585631484
90.7686451435233
91.0200671108215
91.3382818391899
91.6573863545906
91.9891514742814
92.2518555985617
92.4977926105813
92.787906372543
92.989736904807
93.0884292726327
93.2246116273996
93.3818135990237
93.4488261854478
93.4836472453705
93.579839011648
93.7096527315966
93.8950226053878
94.0379516220729
94.1580371523417
94.2907034213201
94.4686974637635
94.6136119252013
94.6899848359106
94.7309400125563
94.7305836150333
94.6642322093668
94.6472561712424
94.6431845382173
94.5648539828774
94.3906324720144
94.1870208463031
93.971756604007
93.6978475226534
93.3878159377266
93.091003869115
92.8555577778982
92.8371945637956
93.0970768138063
93.472116560037
93.8449593250685
94.2762609878289
94.7567133703729
95.1388670667732
95.4498666592839
95.7565455319553
96.0247233662787
96.1936499310823
96.3325133576632
96.4820925998393
96.6500098646271
96.7330223179506
96.7426761704684
96.8429710913569
96.9411738560545
96.9511274522496
97.0242620875664
97.0207999302705
96.9915433811882
97.0718504656848
97.1671286697399
97.2273555310529
97.224387995296
97.2222216047515
97.2548917536833
97.3233899325594
97.4069841537315
97.4114039049264
97.3632851371242
97.3786253629041
97.4613894208942
97.5095697677198
97.5233617411666
97.5413653240018
97.5611069229594
97.5575415665421
97.5526455516541
97.5940105073802
97.6422124282331
97.6637464037858
97.7130147458578
97.7199683931875
97.7118456058435
97.7207589644588
97.7264875143887
97.7664148308528
97.7959998893284
97.7649495359512
97.7568166963826
97.7666345943142
97.7502077571866
97.7932037630889
97.8378593528744
97.8377883202723
97.8315202173191
97.8436445941392
97.8600605733741
97.8638417737154
97.8578220340387
97.8700004353944
97.8987195888237
97.8829775422439
97.8776615614906
97.9050217702933
97.96871470865
97.9882828696008
97.9924104971816
98.0186417843861
98.0242570806197
98.0067979694453
98.0192958273896
98.0331967211116
98.0179272906956
98.0440276121197
98.0506241645335
98.0383894169381
98.0916314098778
98.1293909623784
98.1128413254022
98.1408273016449
98.1090196783803
98.0569104569821
98.0919636391414
98.1221746584648
98.1210737700902
98.1431260758957
98.1578133293566
98.1756601102966
98.1914047484814
98.1388892776803
98.1465903448278
98.1783091110659
98.1556395443871
98.1784267432624
98.1859590809594
98.13356890069
98.1150619553179
98.1800502087849
98.206137064765
98.1428594549821
98.10766883887
98.1096913289753
98.1116343409348
98.117350311495
98.1338095761886
98.160428934438
98.2107236827258
98.2408131100218
98.2306215779024
98.2015997480432
98.1738069550944
98.2268495857507
98.2850232936411
98.2493029055931
98.2176770070047
98.2244354771668
98.2247260802152
98.2418924693047
98.2985112692041
98.3397936750304
98.3208644531169
98.3285747988571
98.3731832223831
98.4227458335893
98.4192040833223
98.3799479069157
98.4004292452148
98.4390646884706
98.4965342969499
98.5319348668697
98.4689591618608
98.4143217523734
98.3853082765139
98.4181504952481
98.4769477155925
98.5325970928497
98.5825568696241
98.5661098973273
98.5677771845597
98.5870407609531
98.6316113043093
98.6181577802348
98.6261986762791
98.6231302044718
98.6247725110093
98.6659940799812
98.6807453005419
98.6350156977732
98.5805603775831
98.6014893147324
98.6094037830819
98.663919834992
98.7319650565074
98.7712557833028
98.8067967911865
98.7966221112683
98.759195720624
98.7095347027655
98.7105323772869
98.7797730373856
98.7805894793902
98.7255297914298
98.7105441991692
98.698176231868
98.6845051143963
98.6904904415472
98.7561338169826
98.7901300455212
98.7522837711903
98.7371414337135
98.8123486367512
98.814629900528
98.7604874448418
98.8021920000339
98.8393972133703
98.7809542053959
98.760163544471
98.7739835417924
98.7591519343944
98.7315761331783
98.7409416638748
98.7589913910714
98.830941627509
98.8408690557302
98.8500098507074
98.8778821361326
98.8889986907112
98.8891898247031
98.9025238829728
98.8235966292969
98.7317525345988
98.7466732904814
98.8485032927201
98.9363310778986
98.9466507295954
98.919721523909
98.9006587912117
98.8448520823618
98.8867404754435
98.9151147545653
98.8620765563826
98.7787150869263
98.7864069378145
98.8792220407006
98.9297634635395
98.9201898438417
98.8417255664078
98.8504536594531
98.9332669233793
98.9154856500014
98.842396447189
98.8354704817093
98.9297487935345
98.9136293394792
98.8684837884882
98.9270004596599
98.9587113748496
98.9548792784525
98.9277857452226
98.8921227251231
98.9138580804131
98.994082052662
98.9832307357631
98.9162877874896
98.9297938782299
98.9536600209996
98.9460561590861
98.9412285466182
98.9095551518253
98.8520051793789
98.8657269915521
98.8763580517286
98.8504814381839
98.8823651326688
98.9048797993686
98.9218231697487
98.9023053646443
98.8590416244536
98.8597533627827
98.8200002887354
98.7980656460514
98.7715048045981
98.7592163288593
98.8114818879303
98.8139137605129
98.7080981407876
98.722715882253
98.7935293377044
98.7736983663355
98.7005732977691
98.6271329107665
98.5670494171272
98.5775654066546
98.6108182932441
98.6297481521245
98.7451321911364
98.8899859962793
98.8686651987537
98.9215339542657
98.896724122445
98.9114448903846
98.8880473598952
98.8522573614003
98.9182712868071
98.9960333970494
98.9858724899636
98.9331978133521
98.8636524289462
98.8089145365213
98.829671451615
98.8771307230343
98.9466501289331
98.9627904990792
98.8277599590727
98.7794799063098
98.866116160633
98.8887481239633
98.7936358016855
98.7924357435724
98.6960911843216
98.6235860048951
98.6344820393554
98.6683378529073
98.7850942556706
98.886925601233
98.8172818944163
98.7929393536435
98.873821895422
98.8940185322958
98.8939514523461
98.9636304554878
99.0052257972581
98.9546547269392
98.9091048393318
98.9170820420263
98.9080281917081
98.9838662456282
99.0773890531662
99.005034413601
98.9044420203017
98.8951953107718
98.9985113928777
99.0668451998477
99.0237606701026
99.0905961637059
99.1871508562813
99.2655331173252
99.3299789160597
99.3047606328109
99.2770865236627
99.3271758808695
99.3870203969844
99.4757317053747
99.5292004398211
99.5544650053304
99.6339836427167
99.7979863849939
99.8352357594616
99.6732381696466
99.6004712535216
99.6585103094201
99.6438753413889
99.6585655876743
99.7671266592185
99.8625697371493
99.8102579901351
99.8593947006564
99.8572097375903
99.9162150737347
99.8665017350255
99.7263483073008
99.6699493521585
99.7081631728546
99.8181284110239
99.7820526596518
99.7310630131697
99.9353137158872
100.01826560986
100.004751935229
100.071712618959
100.277229158692
100.25273642303
100.150298250654
100.178600129903
100.183614378136
100.079934605453
100.1622080985
100.229092271909
100.238792148205
100.236723068917
100.183693708541
100.284620692305
100.398247295501
100.55470675551
100.757889574737
100.485605182947
100.280261513354
100.21670757767
100.183684270727
100.165060510507
100.010046058606
100.074800377824
100.298481879236
100.598010396059
100.685645745497
100.719023182384
101.156295164335
101.470340029779
101.451768086926
100.918831275453
100.652395850404
100.454129144848
100.295575556471
100.28793511287
100.37699345314
100.145076152249
100.062583370887
100.062682617667
100.012856734604
99.9363904301868
99.7933651694615
99.6590609541784
99.719163017161
99.7315071652903
99.7035401178796
99.5386494315171
99.5589250547398
99.6376144761389
99.5215993087583
99.3840695153289
99.4076335912049
99.4172664820345
99.4940309424183
99.5994803799093
99.5362774172539
99.3608995144392
99.4241160821721
99.5231153654522
99.4282515668155
99.4114990167336
99.4583285658212
99.3574805358513
99.4841040344044
99.6556456178949
99.6950980539452
99.6584605857427
99.468383924273
99.2628020961654
99.2793299803141
99.3580819062535
99.4949750981642
99.5968378067292
99.6098475056086
99.6221760901845
99.584914157226
99.5321994686786
99.7543821264835
99.8621024214551
99.8023414830129
99.7467991744469
99.84719191546
100.027720063327
100.032123472795
99.848530852866
99.8501613628607
99.908366045777
99.7632551534628
99.7141443621487
100.173086923949
100.329162898684
100.454451859972
100.630031113791
100.496903425039
100.402460347644
100.487565578317
100.315624939315
100.327903824019
100.360784794421
100.303510198528
100.5050426733
100.569674126157
100.362990985269
100.548466237295
100.476522581764
100.270709331085
100.043042285723
100.08178533721
100.401752918909
100.411663409466
100.385455839773
100.314518862915
100.191022331858
100.308113835033
100.118312405439
100.075766182509
100.156289401194
100.080881513725
99.8771159110853
99.8340580379341
99.853227202219
100.015642379957
99.9407618283611
99.7573020906798
99.8985596096651
100.080054006583
100.136900902507
100.557242934947
100.556848606746
100.195190213081
99.9167464943844
100.044572130671
100.171701937329
100.135298271165
99.9506497217419
99.9789765518156
100.012061304958
99.8596628206784
99.4393533693824
99.0990499247812
99.0290249125904
99.2209010504828
99.2854551255527
99.3729610829137
99.4003409234385
99.5038069817258
99.4188214364418
99.2990069113202
99.208225136934
99.3133061717301
99.324778611011
99.2536834038326
99.2425147422962
99.3736581426512
99.2549307798736
99.1534564814922
99.2374531994144
99.2736266892292
99.227727306475
99.2791389431555
99.2706751139158
99.1920523026368
99.1357729835745
99.1374541169722
99.1107976682878
99.1857359836078
99.2646709202818
99.2768178417433
99.280764825815
99.3315827256323
99.2417890349305
99.306293017421
99.3235914138399
99.1619419417447
99.0663595840408
99.2104060418823
99.2669419115585
99.2725912474521
99.2201959306993
99.2078083924233
99.2199615019474
99.2493663790566
99.2488326330362
99.2105786771031
99.0419776222558
98.9866279254283
99.0767163103879
99.1756218301302
99.1995710755633
99.2237807380846
99.1650152546851
99.151025149271
99.1462738310113
99.1582931523383
99.0306897554706
99.026338558072
98.93982679972
98.8554353027414
98.8490804240323
98.9494897253687
98.9305096069223
98.8426047173489
98.7773260170083
98.8010404499656
98.8029548007613
98.8171099722096
98.6974302052334
98.6213502839603
98.6263942720066
98.6491364463429
98.7125738289052
98.687751576529
98.664166856387
98.7041168053982
98.670506564319
98.5800575439835
98.5775959861164
98.638100299808
98.6469519259869
98.5975063608625
98.5265739127276
98.5348006847552
98.5662753789112
98.5580349484625
98.4762436549284
98.4136397203945
98.3945298270889
98.482157593465
98.5036684580302
98.4311100766337
98.4190906216048
98.3607430580649
98.2998601956213
98.2664113521247
98.2946551509123
98.153755158089
98.1404011708942
98.0881024118657
98.0968055511381
98.0731464831212
98.0521763533711
97.984770534673
97.9413854955244
97.8549205194693
97.7320937189891
97.5939344365542
97.3789623622109
97.1670984330645
96.8199817520938
96.4651678487426
95.963331368902
95.3765579523548
94.5148330781291
93.5230449354188
92.3942888208231
90.4271927634262
88.9277002613264
87.7039462744182
85.452647879258
83.3396955279988
81.4144396494289
79.6163114980463
77.9226307381059
76.3047297107721
74.5625068471254
73.2434502340758
72.350818765453
71.5138299215164
70.4065440151248
69.4878150739845
68.8855749235942
68.5666251055131
68.8574206529094
70.0737621919413
70.5479179233804
71.2421947615969
74.0937272970323
75.6533992240132
77.5592087133243
79.9216872790633
80.5661214611714
81.0969339814546
81.7204286433418
81.5484582068497
81.9486819254481
84.2530336765772
85.1412166751986
85.0725922204403
84.8143063938373
85.1693018204506
86.0517818692834
86.0167763896561
86.3162213289605
87.4070596724907
87.7265347134806
87.5276436833588
87.8650256373136
88.5493997668399
88.7033951100771
88.1960407909287
87.1683469584193
88.1250016787138
89.907281015423
89.5950093792411
89.0819518218594
89.8747745376399
90.4095081068584
90.3516144950065
90.104375388428
89.7341821233336
89.7425680038412
90.8375328861766
91.2792707452321
91.0336202649187
90.9342273002775
91.0952402522422
91.2087834065004
91.3698743023522
91.7010500856929
91.5953960621789
91.3308370048835
91.5447407817357
91.7705175479282
91.5942949370169
91.5626406521269
91.7511076785839
91.9976030883371
92.1643732245284
92.3262776769144
92.4681313099804
92.5746289749456
92.6396370808849
92.6876350765405
92.7609137223525
92.8397467144169
92.8985391046401
92.9281916477429
92.8770370347735
92.6619825524306
92.2288487340836
91.4271114425348
90.5608232028248
90.3417228697221
91.2697477056878
91.7004786232805
91.7593136264636
92.2305185115402
92.8712430974557
93.0990249490637
93.1550695738589
92.8391225544476
92.3564066583282
93.2021979789973
93.8092882708441
93.7254754507653
93.692370553219
93.6180582632067
93.6736755637054
93.6507288336082
93.4530705163643
93.3143397714726
93.1959375087222
93.8250087881652
94.169203735586
94.0240442962439
93.8591805022992
94.116283302039
94.0495695342237
93.8729040072998
93.8956238327992
93.9410550794548
93.8621579023574
94.0299135367258
94.3689340879247
94.3671179398258
94.5324879349983
94.5668613085322
94.3364421513198
93.8648675358788
93.0698528418541
92.3947604153411
92.2591575959472
92.4884306097611
93.1389247921159
93.941218977039
94.8346154125963
95.4873442353064
95.620336739094
95.4294917313621
95.5864917994847
95.8790279012422
95.9518552965996
95.8570831068204
95.6823819502326
95.4568123287762
95.0799488509683
94.6188961174746
94.3429042344689
94.1189754496654
93.9557536819886
93.4537709747715
92.9542362927053
92.5517663855638
92.2863565011847
91.759004505587
91.1536087297045
90.7289647136286
90.5386166230204
90.1074946160955
89.5705251859391
89.3403979765094
89.5147085547535
90.1434814386091
90.6750436259301
91.1238723699313
91.369043937895
91.4219862604092
91.7624494105761
92.7046978763449
93.1782415303775
93.4970274595449
93.9595854640836
94.3096890441605
94.4246429302803
94.4390164569061
94.4710890894087
94.2896465276914
94.0134187814795
93.438315972935
92.1492277754788
90.005273031178
87.1889019991453
84.8699870374907
83.9125497735147
84.7204275945328
86.4422854161017
87.720796351152
88.6522067196849
89.5595346551419
90.1312751483616
90.6993462118246
91.0972640600965
91.1390402268088
91.1689061799356
91.4806593691718
91.8378881532891
91.8907843857266
91.8084057810011
91.5141331192134
91.1265490739975
90.6835787812467
90.3863809006948
90.231054687725
90.1334926061684
90.397868758828
90.9344821544541
91.568061334126
92.4904236129555
93.3628434776186
93.8050519860356
94.066889482328
94.2649835002413
94.4024534255202
94.458875915721
94.4282649959372
94.3262628629513
94.1130609883379
93.7801396536643
93.3560393049476
92.9771562232617
92.9502079967241
93.2147372896443
93.6161861470125
94.0142791574794
94.3021812253191
94.3741901981684
94.2600767495433
94.0228689194644
93.6709457333701
93.2406671502903
92.8160087293601
92.4574463920742
92.1226745386336
91.7930897289181
91.4990003000814
91.1256410588599
90.6590248217468
90.1709990280141
89.6611303064398
89.131023567061
88.4741868813391
87.5615170677303
86.4044211832154
85.119109489378
83.871825432306
82.7385934121995
81.7271388819072
80.8021227104045
79.8873702538234
78.9100952360638
77.8946956962875
76.8615661667062
75.8522217259637
74.8705073835149
73.8931858920265
72.9230077269019
71.9649020293742
70.9726141175445
69.9221986199362
68.8404996064872
67.7862952277292
66.8432966754152
66.1282375628166
65.6698577642195
65.4108486726518
65.228402327619
64.9508384718398
64.4664637818889
63.8201942333659
63.0605178608693
62.1842173889324
61.220841854488
60.2873147749379
59.4622714580072
58.819790380844
58.4418143701143
58.4130895936829
58.7578760384409
59.4750262403328
60.5235643945252
61.8409375077096
63.3052620306084
64.7530026877833
66.0845634713786
67.39805366008
68.7912874886943
70.2353524817469
71.6400188968037
72.9995244022238
74.2872024322912
75.4932454732841
76.6330114993883
77.7139109541685
78.7315557593345
79.7224140131868
80.6807487090799
81.5908674592999
82.481602042849
83.3687942799543
84.243074570346
85.0858387884448
85.8610478375215
86.5089742310236
86.9455113088482
87.1170468382104
87.0134456778607
86.6890746824724
86.2802056137582
85.9747413103042
85.9501350371802
86.3575175339111
87.1566254096511
88.0912723882861
88.8976521102634
89.4777856744645
89.8804911388286
90.1277500830017
90.1811840895024
90.0779726730238
89.8594878101924
89.5481822606169
89.1783148716862
88.7064743774685
88.0893632331644
87.341360977071
86.4777227047046
85.528828815031
84.5529395799738
83.6080233626003
82.67709374289
81.7066171257857
80.6672281739957
79.5036488889249
78.1528531966618
76.6030466654461
74.8786732084757
73.0958944776166
71.4196233288739
70.0370913019573
69.1222838334555
68.8505393512234
69.2449804368764
69.9422605427591
70.229785544932
69.660780882034
68.3026365627431
66.5520208372429
64.7654307069267
63.0866679859987
61.5848495598782
60.3365945523214
59.3733535273696
58.720193586024
58.3451696821289
58.1730079877351
58.0891376333706
58.0656086250028
58.1036149757748
58.3111022892455
58.8394319489467
59.7418232963869
60.9308043195741
62.3067390016937
63.7231516290225
65.1038069122783
66.4284685722045
67.6932661785345
68.9128681582153
70.0976993516442
71.215314199509
72.2467402611546
73.1076533688692
73.7457389819318
74.1592016371047
74.3293440599517
74.2695319522524
74.0286379119594
73.7112726135466
73.4475357050379
73.3287871970144
73.4254162848154
73.7109360919853
74.142958877647
74.7047209074148
75.3272864718837
76.0134994089854
76.7997490886101
77.6088576661925
78.1397281882204
77.5644273853732
74.8874687042309
70.2114825657516
65.2792578446391
62.3186026504692
62.401311745197
64.5485851349417
67.0964629988997
69.3501912853261
71.2746752243688
72.8793555377521
74.2279561343182
75.3640399761996
76.3429039677861
77.1938554930016
77.9118400313803
78.495441499982
78.9268021081595
79.1907559528948
79.3724719963494
79.5211759606938
79.6608164483499
79.7759001743612
79.8012385466045
79.7096570284818
79.4882166515477
79.147241526925
78.8068155544157
78.536261911673
78.3800152082784
78.361725087724
78.4108886129814
78.4510440777894
78.367650136738
78.0414352562086
77.6335937831309
77.4170023468746
77.4893554559331
77.7353492739259
78.0092463491972
78.2922848838501
78.6994209882297
79.2440258380726
79.8879121881149
80.5575824153001
81.1477363482043
81.6574585871944
82.1142903345732
82.4791498726611
82.78662924038
83.074228030105
83.3454451934939
83.5917198728848
83.8684379167515
84.1902077339579
84.5082076917043
84.8451619445727
85.1922905512039
85.4494116906434
85.6482549013037
85.7617159905712
85.727517437087
85.5325310162049
85.0965780200265
84.5042059421579
83.9436826447401
83.5002461526505
83.2235478195517
83.13541764708
83.1559275000058
83.1731085655527
83.2114403761716
83.3101355348799
83.3915223195732
83.2913640937789
82.9244854305797
82.1157311196779
80.6935170798216
78.7406043204738
76.4923664704299
74.3997060241907
73.1690679864899
73.251343048573
74.4432939843608
76.0662333733276
77.5903541582756
78.8360797052904
79.8105961449949
80.5246366235856
80.9953928414029
81.2619733629577
81.4265976004281
81.5132584793341
81.540803859416
81.5521347593274
81.5092038921545
81.533734542895
81.6587463025543
81.7570319617422
81.9239184457557
82.1761360161362
82.4430829520808
82.7372337435801
83.02834197358
83.3135890207154
83.5452787879966
83.7519428498757
83.9017142884925
83.944122030574
84.0466871315659
84.1696285571129
84.2755292225587
84.3166704106246
84.2745382557874
84.2513097021989
84.2378888425497
84.3135293747116
84.4195932435167
84.5309131004693
84.8034233772254
85.0231080943634
84.4856511795603
83.140998545509
81.9147658619241
81.7192151825809
82.4759125924418
83.6186014804364
84.8049922741969
85.8598358793532
86.7391414611016
87.3530575054811
87.755025598418
88.1451870725185
88.5302947625387
88.8473563484108
89.2763527704866
89.8369274358877
90.4086402760729
90.8980090365549
91.3111672852393
91.7923912071764
92.1934035011309
92.4663638777591
92.7435842279991
93.1321227189426
93.3650020772774
93.3055806498003
93.246097605968
93.1439778636212
92.7574821037048
91.9039167971799
90.203632476219
87.0889331894214
82.5631188613981
77.1733101125813
71.5533970852495
66.1659537969517
60.8729488401907
55.4633246686855
50.2650853640568
46.2511799192568
44.5461766264678
45.1893602711387
47.8614961992813
51.5953722034364
55.3857323256181
58.5740666579205
60.9564017067807
62.6059281555607
63.8520314038253
64.7922722773767
65.8291011169986
67.137325089665
68.4422331800758
69.8139248162658
71.1276345816066
72.1427581930015
73.2917376935935
74.1940687296683
74.9344723895891
75.4350497587781
75.6873003855096
75.831802122887
75.8356122533553
75.8080136507405
76.2960713099822
76.9302101037973
77.3186454447496
77.7103454634518
78.0449115269714
78.3020291598079
79.5567180116555
79.6845538862261
79.3700967415102
79.5762041016772
79.5530195764023
79.832164827715
80.459302473917
80.4428395245087
80.7479871865694
80.9128228638028
