1798
3999.43349933624
650.420452594757
1
128
4
100.090895618843
100.085268447458
100.083416666492
100.100274039349
100.142653095415
100.153841405725
100.096025765865
100.005142284761
99.9993227707354
100.118562848315
100.133705118653
100.071326886085
100.058832603871
100.052203688963
99.992287190166
99.9909699533239
100.071208825671
100.17211584734
100.096859175697
100.047639698279
100.044064919368
99.9574703134784
99.9791756868543
100.060289149093
100.024804903292
99.977350628814
99.9822504391399
100.105551826533
99.984116749007
99.9129105801106
100.012925939592
99.9858316535545
99.9634772482462
100.080661864589
100.008134795691
99.9150094373738
99.9076766416206
100.085650452423
100.126499188837
100.083980164756
100.010711051622
99.9932415440616
100.118479397013
100.026398299321
100.048280186467
100.10480668757
100.163966488519
100.138291291698
100.057951431876
99.9555921308421
99.7802759478493
99.8573129008882
99.7370210367618
99.7562124811739
99.9120748673023
100.017382063628
99.9185558557102
99.8959860111597
100.10675218003
99.7681951943472
99.6812525301565
99.9358745262874
99.7994893104556
99.932226426466
100.136863938602
100.082589500187
99.966872925688
99.8828284938978
99.4607341938453
99.9811244360373
99.9101836759179
99.7127850382781
99.8249996187506
99.9727150252837
99.9489776411166
99.7698968121483
99.7059274900895
99.6210856746296
100.006205308907
100.083899884283
100.134351765873
100.004227192384
99.8277185592821
99.886263017633
99.7775890934304
99.5762461330875
99.7784867650744
99.9490160420557
99.9254587095938
99.8385344181427
100.044689312147
99.9451270061571
100.01599381112
99.8266492881942
99.3630644999236
99.7478510245842
99.8893607793182
99.7277428225811
100.232772607914
100.081674276422
100.135500395873
99.9526780353592
99.7194770780018
100.008613926357
99.6791889041158
99.5294120764814
100.041260941072
99.8995105991501
99.9911529810082
99.9982207426475
99.9847064362946
100.081203786051
100.111889689992
99.910824197326
99.8233911852323
99.9458570581297
99.9036258514983
99.8842466858556
100.019853296214
99.9771199172439
100.081279151408
99.8951997991435
99.8351748166115
99.9538567456771
99.8182240308916
100.086757704546
100.046221077087
99.9307184085179
100.001016866625
99.9636042287555
99.9496897298805
99.6377753910205
99.5445972616971
99.5006254505085
99.9402250268936
99.5501929752569
99.9516357877516
100.110742555853
99.9624679466368
99.7746943121941
99.6594195142081
99.8875304049228
99.7297908609671
100.051214117219
100.121652843602
99.947880245457
99.9305648476409
99.8646056470065
99.9284087365527
99.9689966150318
99.9786896384826
100.029157036013
99.813928034068
99.626985352579
99.6424205901952
99.8301204254328
99.9996904018247
100.044104042163
99.7923381916315
99.7827493993867
99.9415709845425
99.951166515712
99.9387909259734
99.8693906419454
99.8768076080034
99.7833974553342
99.7957946900371
99.85786315626
99.819946221909
100.03406137483
99.8980905280232
99.8730997841319
99.4039407836362
99.7820891409197
99.9015588360301
99.5404915440414
99.7511388894714
99.8463188921092
99.8905930439024
99.8984194221345
99.7317826830807
99.7321508682954
99.7430720964372
99.7404243228939
99.8797120265536
99.4206090962574
99.2912713431977
99.3709084408256
99.4092999170155
99.6675596460789
99.6584942056343
99.6934320214778
99.4832477332701
99.3901153010776
99.3425940136381
99.3131401108442
99.4667954409111
99.0218373369344
99.078848594864
99.3557335031859
99.4587733443093
99.4947564979219
99.2059403217661
99.1030315006441
99.1420728899263
99.1551198125542
99.2045759082855
99.1338652106735
98.9809025674059
99.2348307964734
99.3627210169529
99.2301673611931
99.1425554000276
99.2025379911848
99.2287034893378
99.0323550956626
99.0295491746177
99.2434433244528
99.3179131866132
99.0595814864758
98.9720949132256
99.1218449752926
99.1173703829968
99.0274134893755
99.1043325225033
99.0470966690418
98.9221545089005
98.7895758852172
98.8131224752477
98.9923841168347
98.7991259476104
98.5482560573289
98.6746285430629
98.7678047086859
98.5914385594397
98.5852243532903
98.7938735173295
98.8652306098534
98.745301485146
98.7337398847624
98.7832165797359
98.5830741317555
98.383027888876
98.3748957552633
98.4320131625193
98.4076478954348
98.4016936816897
98.4739613084408
98.5987056601824
98.6667241051489
98.5292970357773
98.4756645376354
98.4615353661063
98.2853229397951
98.1379654030981
98.1840704726086
98.2936708027107
98.4738401797262
98.5032556088674
98.3756608705616
98.2806753593737
98.2745054511702
98.1903615066209
98.1896618077711
98.1730174452466
98.0647712849562
98.1360504036656
98.1690667638947
98.1232954381862
98.0941477045383
97.9913338682026
97.976447797524
98.0170316470595
97.9543752013197
97.9705752665338
97.868955326123
97.7727523880473
97.7573989342023
97.7738407128501
97.8428578179952
97.7733395855451
97.7111061721931
97.6999671184652
97.6731908883631
97.5257470711899
97.4070405529215
97.4914846081425
97.6086522304225
97.5690768777979
97.4566565951679
97.3995661100347
97.4071141266779
97.4467692227327
97.4201957269457
97.3792550994507
97.3017832379535
97.2684492361923
97.0991415121143
97.0440917325519
97.1186108169898
96.9940766455584
96.8574487843616
96.9129851872983
96.9100621109031
96.7900106902512
96.832181132446
96.9646187047984
97.0023840676279
97.0600477511006
96.9533951357566
96.8207496056584
96.7989864088774
96.8092325978504
96.7457381281683
96.7744916379299
96.7891392896929
96.6761591697953
96.6968894912715
96.7256851156155
96.7014206303109
96.7287657691195
96.8555406293246
96.9366622250542
96.8704048746018
96.6864184995395
96.6389551061232
96.7487368138318
96.8251252538088
96.8669015315002
96.7564199641668
96.6663564838927
96.6415763493083
96.619723809169
96.585255014064
96.5964994442214
96.578804240941
96.5574353628076
96.6077737447359
96.5802910971797
96.6340887443782
96.5871316240752
96.4713058728633
96.5111417226302
96.5161068573092
96.5385700048308
96.4566674276052
96.2857290433055
96.3543440138935
96.3569447649077
96.2586634137215
96.294186322512
96.279010982739
96.2311363290266
96.1628238523264
96.1447218925181
96.1934780000428
96.1595652986635
96.1127801199202
96.181820210968
96.1935070342012
96.0946198523629
96.0081696355479
95.9888321368468
96.0041090632792
95.976813651006
96.0072491261013
96.062274805298
96.0768774476864
95.9771220656209
95.8902425792622
95.922957118359
95.98317372315
95.9606138284902
95.9449354797074
95.9739396674709
95.9204992578538
95.8638169869668
95.8924911093455
95.8388693310372
95.8419925072844
95.8746934993589
95.8539242029545
95.8246634974322
95.775118203357
95.7898264932323
95.7581705326848
95.8316945795518
96.0231895079369
95.9741264180946
95.8290501163969
95.7379608084575
95.7794352285201
95.8116541418834
95.8025824230527
95.8365056437992
95.9100886642133
95.9219827502542
95.9789661990016
96.042218204082
96.0682357211008
96.0003410475337
95.9516321364916
95.9648171950458
95.9964929406676
96.1229269204333
96.1247336234221
96.0808557921266
96.1170636457107
96.1360601304633
96.0967740845216
96.1464630251003
96.2229034732899
96.3472120117508
96.2558773683535
96.0997605560876
96.2475774652646
96.3928987941811
96.3140266631116
96.2140449507306
96.1949496554367
96.226403540618
96.2629259571465
96.2839879717813
96.3295817432047
96.3026582121122
96.4141659675578
96.4553089077416
96.4195196221932
96.4620147420992
96.4372093327806
96.3489830133826
96.3830278406105
96.4724179754916
96.4979160017073
96.5292453746952
96.5380637176508
96.5387740692479
96.5525450065198
96.6212355771299
96.6833601992179
96.6560282946024
96.6288454374432
96.6582377254589
96.6455180175186
96.6999891256686
96.7540581513319
96.8009260893699
96.8518442505391
96.8693410944139
96.861804261002
96.8282686473426
96.7863837425068
96.7815072907677
96.8791935810004
96.927396858135
96.9064317698613
96.9287987963113
97.0033393218545
96.9939030401709
96.986156579457
97.0164386050594
97.0631779491439
97.0951817870927
97.106742566603
97.1031306300143
97.0473700572582
97.0128576976792
97.0297693897465
97.0566970235326
97.0515286649241
97.0275966314373
97.0991321167727
97.1598382980626
97.1277367608018
97.0928232445502
97.069376801282
97.0804605099174
97.1318138448712
97.2150614190443
97.1841336335717
97.1488707490517
97.1816837452907
97.2139681148293
97.200020682924
97.2094240450776
97.2185696139152
97.1942819041955
97.2042195874885
97.2102356064042
97.1010299520946
97.0479973292431
97.0667434460201
97.0847218233358
97.0973079337071
97.0839786754133
97.1231228948799
97.1466003431413
97.1526712206515
97.1031988929533
97.05085165843
97.1031350074328
97.1094989498149
97.1468214915649
97.181503783237
97.1150723372262
97.0854647555574
97.0526080873154
97.0536736632253
97.1470560208886
97.1866809937923
97.204038165361
97.2516049607439
97.3183552477201
97.3791217127955
97.4117612587835
97.4422265581365
97.4490657005423
97.4505576562217
97.4466265664079
97.4733449020231
97.5498494832216
97.6125411253723
97.5546697256425
97.5043245520803
97.499299051136
97.4907730450874
97.497827796337
97.5062336967347
97.5068277226113
97.543948161601
97.5499320041532
97.541212561848
97.4643137111732
97.4011931965712
97.3627101277211
97.2885064576636
97.26502375419
97.2712785404827
97.2262734188032
97.1648960125305
97.1542269869897
97.1031157403332
96.9945938464849
96.9368692822895
96.897847897294
96.8007569110885
96.6647971325792
96.5394254680959
96.4089605714629
96.2858202474426
96.1917414912112
96.1039999140402
95.9713696979718
95.7972562731758
95.6568264560134
95.4997179329613
95.3356504270752
95.1112347855594
94.8991288579261
94.8037604005298
94.6995290582886
94.5704329874106
94.45844074439
94.3897552996181
94.3179784199251
94.2282906913432
94.0936730972183
93.9747358901914
93.9348197645558
93.7956821076422
93.5842195129621
93.4819673730608
93.3836673249759
93.247386765802
93.0305082791045
92.8129426834198
92.7190522814215
92.6279053777344
92.5147558399197
92.4925610835823
92.5741319055957
92.7572212517998
93.0083667562061
93.2427260561826
93.4862879130068
93.6397176258854
93.7885524682469
93.9953251898883
94.1642075868136
94.2864679788175
94.3776232453765
94.5006671554174
94.5516663931398
94.5657969108383
94.6580796826514
94.7467175857987
94.8125623653257
94.9253887250493
95.0769842278323
95.1887960171037
95.2913710881483
95.3942739953527
95.4484162413583
95.4866507956379
95.5293361184401
95.4728633859799
95.3855277248985
95.3811220819892
95.3818840455277
95.2737909289777
95.1164226250326
94.9449098889087
94.7712487756925
94.5953594562022
94.407748903685
94.2445615770506
94.1995288361847
94.3208714918234
94.5951384751766
94.8899730823612
95.2002554610306
95.5265455626837
95.8171736573912
96.0964228243456
96.288362017718
96.476397030727
96.6216422963153
96.7358580343407
96.8412469520764
96.9669820897574
97.046822684619
97.0355404792595
97.1027095449969
97.1910663328282
97.1971561379201
97.2414019616344
97.2510020099324
97.2549528172137
97.3474588409267
97.4359474314201
97.4766531658434
97.461829331351
97.4190054430707
97.4126197975716
97.4538579355321
97.5013397585208
97.5177510321832
97.5437164283246
97.5954451515169
97.6486882581281
97.6771476995192
97.7110645601182
97.7250316349191
97.7331537202436
97.7280896090244
97.7148511987103
97.7373940756639
97.7905866927079
97.7996040857426
97.8152118195888
97.8311580681215
97.8142695516996
97.8239607289191
97.8550186397237
97.8757107147806
97.9213478491532
97.9037911956989
97.8831691458368
97.9196089630216
97.9250265079651
97.9122176738813
97.9217236480927
97.9305874024099
97.9432987042395
97.9746504662625
98.005787020881
98.0284684901686
98.0224384469126
98.0024690996294
98.0362369789519
98.0382416584487
97.9995846702903
98.0220149899538
98.1027108162021
98.1402797058095
98.1439794406917
98.1333382344816
98.12230650672
98.1083390341916
98.1425485078964
98.1703958857684
98.1342525378152
98.1337552755876
98.1458464887877
98.1646836857524
98.2189834008207
98.2201978546255
98.1962264437164
98.2436462310339
98.2556421910782
98.1941653935115
98.1922824499266
98.2425304890434
98.2580841499401
98.2445727261218
98.2500844727113
98.2985165935073
98.2926215997544
98.2247813097876
98.2395601838543
98.2734523104989
98.2769161362406
98.3107305976584
98.3029921731755
98.2640457880203
98.242977725745
98.2737303341504
98.2929812360062
98.261311988658
98.2613899086184
98.2567972691035
98.2549317238726
98.2706279483461
98.2787243552953
98.2837558630418
98.3325969724705
98.3747927571323
98.3459926654709
98.3148241941927
98.2859018895577
98.2826196077224
98.3504596195519
98.367600405112
98.3320980404855
98.3332896908953
98.3362651928173
98.3450612006191
98.3763054222722
98.4135646990633
98.418810638102
98.395208595684
98.3962132214951
98.4745781403215
98.4787678925352
98.4035221871311
98.4428405480458
98.5096732198593
98.5241432833451
98.5973968967483
98.6354326488473
98.5707419867167
98.4804787945721
98.4818643675501
98.5801465955751
98.6306810636817
98.5862115367977
98.5908290821032
98.6445865815078
98.6203086094174
98.6361514460905
98.6608844411359
98.6770364982663
98.6832438077469
98.6449554097793
98.653964667726
98.6937014778943
98.6481613487467
98.6279064389329
98.6190870846203
98.6585232388799
98.7280566908266
98.7541813607121
98.7497744137327
98.7762653379077
98.7752858614349
98.7854774979132
98.810071705389
98.7437929412426
98.747017783181
98.7565050669855
98.6778069830014
98.6995293821698
98.6808191823425
98.6982678403842
98.8475796758436
98.8466997455462
98.8056812668874
98.8257572543187
98.8478081129225
98.8911000136684
98.822868910323
98.7735469375673
98.8179261577847
98.8299963111352
98.8057331477882
98.8073705148717
98.7812566940035
98.7408727046724
98.6746585062525
98.6713935014149
98.7267540208231
98.8657559584495
98.9042541415823
98.8918306788386
98.8944281991771
98.8700453357668
98.8461631378862
98.8814384149298
98.846370318814
98.7957845254402
98.8611132483829
98.8724625811175
98.9263127567678
98.9559145620027
98.8793252076206
98.8601671106325
98.9200868717773
98.9891927846285
99.0030611210964
98.9392187693037
98.8395186377574
98.8140426832615
98.7885904611964
98.7792265860731
98.8319181249565
98.890490839287
98.8940617080845
98.8988654015349
98.8811126487385
98.873956546813
98.8722300737007
98.898876475226
98.8806060184548
98.8649836919839
98.9275534101126
98.9720019150717
98.9433189857726
98.8985534215618
98.8907794766174
98.9709317348329
99.0304248495297
98.9375673254979
98.8576507600899
98.9165512053057
98.9371288943967
98.9287614130889
98.9466217386788
98.9109806235931
98.8728377003096
98.9113669074321
98.9201681089099
98.8979297035656
98.912731155697
98.8758158476648
98.826298078941
98.8238656566895
98.8232341054348
98.8448143467445
98.8647236910133
98.8661241276309
98.8459521562475
98.8460368551112
98.8717254608708
98.8680532282663
98.814110717054
98.8022089435565
98.7884027941997
98.779046064637
98.6961753189008
98.6142847310201
98.6565583052444
98.7364637066005
98.7231894237471
98.6846232700421
98.8149917440704
98.9629360555122
98.8752081102113
98.9200573197775
98.8802072196314
98.8473095069988
98.7954118602179
98.7704297132488
98.8984752990017
98.9838252324589
98.9111325634407
98.8632698506561
98.9059581981583
98.8690599360144
98.8256224301837
98.8711648539928
98.9620563812065
99.0105452508914
98.890814383712
98.7894080361831
98.8647496428604
98.8917001737948
98.8031839141176
98.7868361248995
98.6558756667998
98.5895189074585
98.653948172953
98.7294875225168
98.7748958135256
98.8654115090429
98.8485684311639
98.813136333977
98.8223153808794
98.8327687224544
98.8860717412872
98.9836739271333
98.9964589071111
98.9363829806979
98.907449602108
98.9898083223788
98.9849355877504
99.0028696516007
99.0283075563481
98.9474390889794
98.9046519766668
98.9764309598293
99.0653448849717
99.0945259188958
99.0951696122456
99.0469504720495
99.014835128709
99.154316944931
99.3289089102094
99.3515588902125
99.2942658488374
99.295408406689
99.3298297518615
99.3337843881581
99.4225982072978
99.6026971212495
99.723278694778
99.859729200408
99.7911693301949
99.6726855731637
99.6884434710036
99.5611861322717
99.5111077562752
99.6799699227496
99.7223084699202
99.7501726702474
99.6804586094366
99.6344678341096
99.6500657036261
99.7471744108039
99.7544473186599
99.8939713954164
99.8567615928926
99.5844358083787
99.6574274047357
99.7692578291452
99.6609279384835
99.8018062603028
99.9568218637399
99.9398254077362
99.9133927315256
100.049197563954
100.149056536769
100.081967427449
99.9510600642081
100.111972076872
100.28707333708
100.364292359889
100.256472470917
100.185553954982
100.141866235144
100.062510231983
100.126917019896
100.159488222668
100.231614924882
100.220413838664
100.010373420849
100.035899466722
100.109857350971
100.129530972543
100.124725834972
100.069446821134
100.067365440069
100.264175868524
100.291877327317
100.29541275598
100.596118285316
101.069517810966
101.31057373992
101.373282229647
100.904960317376
100.589937456664
100.412563127856
100.147368201662
100.076710396618
100.203394471836
99.8195461905824
99.7217605776958
99.7965573722248
99.9477597253122
100.045345275335
99.9038565271319
99.8225151234033
99.7831717391902
99.5343154696771
99.5494212922318
99.4887471615073
99.3858144459961
99.4024260118579
99.4386605383788
99.4015423544372
99.3753811097587
99.4146978884178
99.4951644681351
99.4483109667052
99.3285644253536
99.2935909835257
99.4228267757432
99.4086530600605
99.2954972036848
99.3391826199719
99.4851477203639
99.46093001086
99.4971005642903
99.6045492429806
99.5506323522373
99.3512209341273
99.2123442499062
99.1706358444335
99.2966380733005
99.4525386142432
99.5700953169109
99.5679800234372
99.5361752441865
99.5542909257395
99.5965395230304
99.6155758514986
99.7027655220121
99.6877061970237
99.6542379311033
99.577182676522
99.6762145265815
99.8759284315246
99.9338485941455
99.7674615687377
99.7913092162184
99.9144896845918
99.8561213160536
99.7478904985811
100.110612804727
100.395088854273
100.464497136797
100.241255850178
100.041630189019
100.127939252768
100.414186892322
100.543099639565
100.648138166167
100.438854428142
100.264858265712
100.456264348895
100.400195748764
100.038259759889
100.186748658678
100.288459797274
100.332595567632
100.272944896443
100.185124653331
100.166705935652
100.06437006066
99.8931136604722
99.8353681586217
99.8564669472625
99.9178840816775
99.8884756526842
100.097778654729
100.226518893064
100.021124201269
99.8213779124081
99.9655969481601
99.9789569798246
100.076250339529
99.9619586720635
99.732020469602
99.9412736446448
100.312352078021
100.23295174001
100.478896883776
100.657665203847
100.434061823049
100.067676533985
99.9610686223491
99.8391002408179
99.8382991360726
99.7560864780135
99.7574594524836
99.8622603574617
99.9364082308836
99.6448048846093
99.2612245194728
99.0844377280537
99.2208308107031
99.3912331257299
99.5153101401026
99.5460142802131
99.6112627464504
99.3887725793664
99.3340684075441
99.2565737107377
99.306980051547
99.3252994891942
99.2482679856136
99.2091621048666
99.3986831917507
99.2951362231902
99.2362510585802
99.301909768949
99.2365818044016
99.1943445017887
99.3015086596529
99.2691540315605
99.1797340069007
99.1513710800328
99.1394493183881
99.1541692966194
99.253971994875
99.2976275830616
99.3484662877646
99.3320439463884
99.3158827320433
99.1930994890288
99.2119240989153
99.2524867529466
99.2242897457638
99.151018514582
99.2023237464218
99.1989129794482
99.2402402116587
99.233721870468
99.2410108902998
99.1762327313611
99.1430873250412
99.1826933169031
99.2220410362117
99.1463234589791
99.1018787375086
99.0981338386117
99.1387633199519
99.1626450899927
99.2297357971839
99.1533963692359
99.1270734452237
99.1167455100473
99.1324038592135
99.0501135048484
99.0829142739353
98.9684696268336
98.9160607075581
98.8823719170206
98.9083392576313
98.8987304453578
98.8360366170837
98.8035921112835
98.8429206979734
98.8559733918698
98.9385601551693
98.760850233595
98.652899408732
98.6840482329952
98.7037874951178
98.7972299743623
98.7764478187176
98.7485234424884
98.7705545979168
98.7601347461986
98.7196272865858
98.6857478713768
98.6979458302139
98.7176629763822
98.7067595345727
98.656937694753
98.6607435948689
98.6841280113901
98.6866481700188
98.6019595768959
98.5256209480601
98.4376641602551
98.4866211435758
98.582594609201
98.584005291585
98.5732354539171
98.5247355268994
98.4995492723004
98.4388215300467
98.4889389918188
98.3915119999759
98.3891646205569
98.2187212852439
98.2408920613151
98.240427269454
98.2391112521698
98.2334460465133
98.1665835974572
98.0397700801881
98.0145789871994
97.9128523010431
97.7235929258631
97.638393731741
97.2979654158688
96.9025179312741
96.4510874472446
95.9880985194676
95.3105808083038
94.5067664772853
93.5403353773563
91.886048373347
90.7935351764375
89.6838378229642
87.6685788360588
86.0740486353887
84.5837479401041
83.2474048842162
81.9537974035598
80.6665023303804
79.3228487903958
78.401943359829
77.4882924146014
76.5326264155104
75.6435783616431
75.1206449471987
74.851167501941
74.7705595844595
75.1022623930454
75.9569604867961
76.460791231361
77.2389729257127
79.0966213072346
80.3168192132092
81.6445214432192
83.3630037306196
83.9402159510705
84.4197552128025
84.8468972637509
84.8270884507768
85.0205626882143
86.5215448868439
87.2241782769252
87.216135441178
87.1380191212735
87.3491080969974
87.9229164878912
87.8976300918506
88.1207702671529
88.8794123948804
89.1318657789382
89.0211221772404
89.2469329899806
89.7188866015052
89.7329807181252
89.3124154560929
88.6339915305581
89.1727401982323
90.372361784347
90.1440138755251
89.7653683367111
90.3866019452777
90.79420253258
90.7687507805923
90.6099423180286
90.4016749774727
90.41917100526
91.1877521305901
91.532076367096
91.39461187091
91.3491009296442
91.4509277560231
91.5753111901293
91.6791286803521
91.9175430326093
91.8458614356717
91.6293403300051
91.7400409493592
91.9814899157382
91.9199879775084
91.9501778847405
92.0674198956688
92.2630833653792
92.3882718686676
92.4829779470533
92.6053067629592
92.7201176397842
92.7528715426829
92.7604255469937
92.8188918100097
92.8981601133339
92.966839929284
92.9929249214411
92.917924663871
92.7218246403396
92.3683205428039
91.745122577288
91.1822866343387
91.0446088514841
91.7241659004182
92.0724945401757
92.1698996111114
92.5056523449405
93.0328428892811
93.1988283053622
93.2166303213435
93.0093130903341
92.5466053988611
93.0284513252388
93.5938126974684
93.491917499788
93.477027904918
93.3938702906216
93.4410462648737
93.4463915699406
93.2202399865799
93.0948506657822
92.9422069240842
93.3432549657044
93.6565056801054
93.6225417445535
93.4656315154629
93.7421017881209
93.7273306048579
93.6097502283335
93.6266629965062
93.6828800417945
93.6303206359075
93.696644257917
94.0362725328498
94.0227926093924
94.2234981119901
94.2942847501526
94.092624511329
93.7189313927487
92.9615857208445
92.4299406134647
92.5751899500541
92.8907001928815
93.4601554197437
94.1314111387475
94.844521862084
95.3797848163085
95.5314328138087
95.3310512663419
95.4320751193661
95.7103478754907
95.8119295113375
95.7698796806877
95.6201349731003
95.4532682970445
95.1331254872586
94.6982782136197
94.4631992648914
94.1845057426955
94.1540764795743
93.8359471616289
93.4484534823482
93.0390954907936
92.8387154163654
92.4822701901447
92.0210900017856
91.4972838228492
91.249170311934
90.9829740735615
90.6047763222949
90.4992343109198
90.6625310755727
91.2107110664072
91.6518411798837
92.013386726221
92.2188616378884
92.3174825316013
92.5430734641932
93.2591594944747
93.6525232497848
93.9088000375198
94.2393491043856
94.5124340330285
94.5959620086808
94.5446771893529
94.5558895022671
94.29666779786
93.9691608842436
93.5447366608521
92.5202866613666
90.813133949628
88.5668008376563
86.78536002775
86.1541067772188
86.8614298768985
88.2212730975892
89.2982334544134
90.0323893448092
90.7014961701512
91.0832303538884
91.5199171449787
91.8862097505174
91.9350701324313
91.9481648159463
92.1821943462156
92.4977713118171
92.5324946171502
92.4686253551655
92.237049651748
91.9432986429705
91.5632230548397
91.3061944701137
91.2309586670888
91.1883791891708
91.4391691680733
91.9293536128469
92.4396299265167
93.1097020760273
93.7847680197773
94.1451025891981
94.3586963367109
94.5169200043456
94.6256846224571
94.6691319669743
94.6505800988055
94.578722916999
94.4258601991047
94.1627639761027
93.8005217556358
93.4651283938192
93.4642768109462
93.727835693084
94.0923969580922
94.4198911935859
94.6413690086542
94.6969828231794
94.6176771445249
94.404789319146
94.0993635548242
93.7586307254599
93.4058394143093
93.1114741806024
92.8699334045092
92.6240672183736
92.3762020288105
92.0723024887674
91.6995236086637
91.3008110425765
90.8918112578011
90.4636376773049
89.9336940266158
89.2055424492449
88.2615131771963
87.2262866423625
86.2494165378305
85.3457250809322
84.5352311257435
83.7840347724177
83.0387154555167
82.2547232175385
81.4148846521591
80.547588234579
79.7331315830252
78.9476153736806
78.1477910329862
77.3534041061821
76.5608867745108
75.7475194697558
74.9043827690312
74.0081568975698
73.1373964920059
72.3660786533187
71.7715453308935
71.409180286891
71.2147677856761
71.0592276491646
70.8120513921786
70.4009354938659
69.8444614395505
69.1821134138605
68.4437125348509
67.6767355564201
66.9332226956563
66.2388801775152
65.6955238920959
65.3937685325864
65.3767777348374
65.6434953869815
66.1817299228326
66.9605936601781
67.9807799652231
69.1546003411893
70.313786313165
71.3827934391723
72.4536304833583
73.5941261805584
74.7753443876106
75.9297550248277
77.0766332546817
78.1568288255438
79.1484892052808
80.1033095817009
81.0067067870501
81.8459492780278
82.6621917592425
83.4595058638816
84.2285487823668
84.9761565374197
85.7095089755517
86.4389894819193
87.1396529194219
87.7725864189027
88.297361209771
88.6282092504186
88.7577085161703
88.6851151076923
88.4290590110116
88.1036016129979
87.8657968757034
87.8731160708086
88.2409753185621
88.9164699984183
89.6771229100176
90.3232020782376
90.7883789922276
91.1112718454286
91.309984851662
91.347012319418
91.2486674139562
91.0607256314048
90.8110943272851
90.506889696197
90.11657807379
89.6298245825761
89.0326016945321
88.3139337018122
87.5227952236365
86.7296370796698
85.9411453006289
85.1420502284519
84.3221410220476
83.4512110746973
82.4732238436399
81.3318185173965
80.0402737511203
78.6272896988496
77.1773902329904
75.8339681073867
74.7385900389915
74.0118939121577
73.7979721964294
74.1289958363652
74.6904117684394
74.9064251518952
74.4060704613064
73.2645814891891
71.827752251273
70.3570721160111
68.9667717803956
67.7457734305204
66.7443777585232
65.9405849455091
65.3700091071562
65.037089531525
64.8705069049488
64.7668383366187
64.6995617025937
64.6817709902112
64.8207173146681
65.209380458592
65.895625518451
66.8544122514407
67.9936352609638
69.1564362197461
70.2760588422953
71.3535599799583
72.4016723911332
73.41112385832
74.376267440476
75.2951588608922
76.1582432079197
76.8742427217916
77.4051341703614
77.7508705268325
77.8887236365086
77.8194019856097
77.6176725082918
77.3752625937786
77.1570276104434
77.0550725640905
77.1577918381822
77.4269384055555
77.8096768836249
78.2747619646807
78.7641636927391
79.3012567056615
79.942943743129
80.5976441085892
81.0180510179129
80.5039562203655
78.2532890293188
74.4115708614116
70.3652203568228
67.9557272950655
68.0826922647926
69.8993331775484
72.0194258253974
73.8749313260252
75.4642436565541
76.764678321578
77.8306226198875
78.7656437678253
79.5898558171088
80.281725467331
80.8569756894958
81.3417519163902
81.7081395036705
81.9535182933336
82.1294959625995
82.2508621934197
82.3675344940555
82.4709231943037
82.4906817498947
82.3985470150735
82.1966404430267
81.9328359572489
81.6796507591463
81.4639165262579
81.3485884491615
81.314542147733
81.3250063323519
81.3606472456833
81.328667856305
81.1016184384322
80.7693843859664
80.5646189172812
80.6261138532647
80.8403381977919
81.0824381856262
81.3349049468149
81.6747222234563
82.1417626407366
82.6961710711871
83.2568509013613
83.7427562456156
84.1453601758392
84.5242707373815
84.8379074610696
85.095088696069
85.3278263549078
85.5160923894779
85.7096105180466
85.9606953243751
86.2649284450909
86.5727628045002
86.8414531387107
87.0749259725233
87.292977804752
87.4694993943662
87.5479075946097
87.53057769507
87.3901056698211
87.0281373417946
86.5247213666628
86.0408809747515
85.6682134173645
85.462986498577
85.3808128725157
85.378093802266
85.4085428656763
85.4597888116597
85.5285051047076
85.5794307598835
85.5107656105902
85.1886888187259
84.4862895309429
83.2800921217747
81.6167052271397
79.7153682087041
77.9771733722266
76.995593147248
77.0872076385719
78.0540689854467
79.4164704652735
80.7162428288203
81.734748923796
82.5102535245492
83.093618966529
83.5040520846393
83.7187366627117
83.8166102801508
83.8763003329345
83.8844923969764
83.8772147336997
83.877826375068
83.8903193932335
84.0076230672206
84.1714760370551
84.3466185270809
84.528802951888
84.6819490471349
84.860459060565
85.1355755324887
85.4203676460769
85.6006018664632
85.7630692132053
85.9071244257072
85.9672690849363
86.0601514918547
86.1444887828369
86.1750226824946
86.1812137150616
86.1645120323109
86.1569298868013
86.1621885540579
86.1712167405736
86.2374581658767
86.4109615359417
86.5857242238911
86.746153295823
86.3955499243411
85.2131496620511
84.1392462642284
84.0017615017885
84.7017732204314
85.6975493520569
86.669439987855
87.5236994100214
88.2303138974604
88.754292014463
89.1074513148372
89.4166832594732
89.7086064807541
89.9726563897779
90.3182334832059
90.7948913661924
91.2972990851012
91.7415312636019
92.0840704695656
92.4544259861861
92.7817867226292
92.9685768811707
93.1755010377106
93.4933188692683
93.7200623331121
93.7873627121711
93.7831369859425
93.577551937122
93.1940830314365
92.5725475235149
91.0785764060944
88.3634926758321
84.5605136328571
79.9432998819076
75.2088360725019
70.7786958276497
66.2158243811494
61.4845496610636
57.1283830644824
53.8976508306664
52.5732728382023
53.0880418422087
55.1211648171551
57.9798249316764
61.0549587323788
63.8509395140728
65.896053713702
67.2926797409667
68.3459404110374
69.1714830599238
70.0051922709403
70.9691286592613
72.1724793545321
73.4382429320162
74.4289899998806
75.2819612346832
76.2902157002339
76.982079124322
77.3730252382244
77.8657701754393
78.3331748883778
78.5353490485355
78.533926489221
78.483769452683
78.8997677429588
79.333194226626
79.6540936146843
79.9461085725072
80.2216103112772
80.3773695997652
81.3985884362692
81.5425377938077
81.3581828583097
81.7403796300239
81.8839244363168
82.1283943536722
82.3996998079503
82.2063414693724
82.6236208627207
82.9437922426966
