1798
3999.43349933624
650.420452594757
1
128
4
99.6525683493223
99.6770137611609
99.6569772472335
99.6237166633129
99.6379952020415
99.6921112569164
99.6181854705215
99.5362716642666
99.5329440820134
99.6878841354841
99.6589710747865
99.6085333566
99.5884047850284
99.6456632648738
99.6490669918349
99.6137878977471
99.646942986497
99.7716262583634
99.6395688278327
99.5813517722102
99.6668932544555
99.6277677459887
99.5802149559964
99.6297071113262
99.5514420893651
99.4413110670937
99.3614433229441
99.5258955971634
99.4155699304284
99.3253817578729
99.5010967224588
99.5499008603002
99.5569798663211
99.752061335481
99.6266926194163
99.5057480121047
99.434584671093
99.4884355893196
99.4523660716975
99.4826041410749
99.5001756965473
99.472871412035
99.5288653223663
99.4363415451671
99.5567073342529
99.5970698820744
99.6590393522462
99.7321018797389
99.6370325260609
99.3201116936499
98.8857330277281
98.9467691066161
99.0055595238953
99.3658495976735
99.5709927964484
99.5289909094966
99.2824438713756
99.3042653338229
99.7166953310689
99.1369114651768
98.8911675986243
99.2959304959767
99.0705001512722
99.2647534861635
99.583861656709
99.4401593823813
99.4197912474399
99.3706583019954
98.5029519021379
99.2383154381463
99.1698017602442
99.1158934485622
99.2527931178983
99.4301902702392
99.4510700750511
99.2627241411817
98.8635660929098
98.5357097967397
99.230574198496
99.419622267519
99.6310860937978
99.581886702862
99.2992061155884
99.217754724339
98.9001025375074
98.6079290694136
98.9519033338692
99.303584646521
99.3727907919984
99.3335543709536
99.5820851255909
99.3274322175317
99.4147275829764
99.2223549989093
98.5362682425772
99.1468410952165
99.2795597691491
98.8947415568722
99.6582240732203
99.5583124149637
99.679005883887
99.3766087893966
99.0339505089046
99.3990599702874
98.9191582951136
98.8065918374166
99.5240569012549
99.2776754287296
99.4905232280995
99.5005044426349
99.4727302544749
99.585626842322
99.5914449373836
99.3059433351008
99.2065024592845
99.4256628238361
99.3238982100934
99.3287524252589
99.4823642752678
99.3810147359175
99.5269458427192
99.1750295781694
99.0455519070048
99.2847864722902
99.1075581810302
99.5208101496137
99.4903167114063
99.2824855377192
99.3301204997167
99.370586118992
99.2253075979004
98.6100791995766
98.4820314918491
98.6687865318641
99.3783976949834
98.494975905775
99.0926453161592
99.4736544743912
99.268018115997
98.814561119379
98.518572243337
98.8621605841872
98.7761671915216
99.375353941828
99.4340659719343
99.2831082208065
99.3185287426466
99.1008121990002
99.1609957632809
99.3722952396775
99.5155060631551
99.4986232402732
99.0977893052006
98.7908390683693
98.859493251204
99.2222287959558
99.4545685289696
99.5300633454897
99.1755826575024
99.188318041228
99.4153120724327
99.3490735469949
99.4273078109708
99.3844148496478
99.2604592781586
98.8377863190594
98.8815621889461
99.3603800067706
99.4271410693036
99.5087963160172
99.1504299760344
99.175681247554
98.484941237919
99.1185192795806
99.4278930208588
98.8148068710693
99.0537281082611
99.38010427435
99.4612615822594
99.4728617401972
99.2985636721207
99.3170914384933
99.1784854695789
99.0785487900459
99.4119991268389
98.9138101510457
98.5662851765475
98.6467303304327
99.0215946491996
99.3357803014531
99.2197600510451
99.3485693607538
99.2823541718234
99.2304683009947
99.0457228861037
99.0476740620624
99.2726495041104
98.4487784153237
98.6255229369605
99.1751456335445
99.3600977535558
99.2477469508243
98.8508847282971
98.8831604463593
99.002198078161
98.7925301070021
98.8559255938537
98.9852416353183
98.8276183699357
98.9336275786799
99.1638168250983
99.2191944372899
99.1394740798969
99.1707001683069
99.1802078523831
99.0830732909667
99.1952847427361
99.4504634683124
99.5184731648197
99.0827960612641
98.9632826951918
99.2552992369486
99.3302657204094
99.3733851941506
99.4243436203151
99.2794195936746
99.2008612643429
99.2336855467007
99.2887988027888
99.3228499100378
98.9348712798355
98.7519819887217
99.0817294002931
99.2873307593025
99.1644624943423
99.1828369399876
99.4874412578505
99.6220112366038
99.4829376584686
99.4482399195792
99.4591701747969
99.2086568139402
99.0327959509883
99.115574666122
99.2385140527236
99.2645331582158
99.4239055444185
99.4726477375128
99.5543837738604
99.6023882170151
99.407079899853
99.2715434066263
99.3724418024082
99.3135681565923
99.1108780096481
99.2344118132511
99.4621559609802
99.6700994320905
99.6478826517914
99.4641245191039
99.4316931626725
99.3571898511701
99.3050422737243
99.5040260019622
99.4780896693431
99.3111773619918
99.4459007809931
99.6438402460347
99.5690661596044
99.3916895996709
99.3470825427262
99.4654390309388
99.5810001410515
99.5704041201266
99.6495758159778
99.6153211767421
99.4840083440145
99.3986095465381
99.4811089625104
99.5200239883394
99.4764882108567
99.5789895332296
99.6364050278213
99.568538460894
99.3850645844258
99.345975284817
99.3519692417813
99.437667029399
99.6011838626527
99.6227048344303
99.5257511047661
99.3881421325505
99.3696816288355
99.3924637849894
99.3366224157148
99.1879660254665
99.2228186165426
99.2187423265871
99.2347577845656
99.215219367359
99.1094802750904
99.0067944591587
99.0088366489288
98.9882776233656
98.8617413753151
98.9496748211707
99.1284537189439
99.2376621956249
99.2640394728998
99.1095022527607
98.987365418954
99.0341387000198
99.1585921167937
99.1056684533966
99.0749642034761
99.2049910897924
99.2618520869174
99.1804254371327
99.1955837336858
99.2861202748981
99.239578049005
99.2407357218124
99.3002206050635
99.3329131148114
99.2068181685239
99.2277853669004
99.2844097837172
99.3968978962815
99.4492981715486
99.3116696237193
99.2801792593012
99.2990041346178
99.2578095699246
99.2613727401736
99.2347032558011
99.1673386227051
99.1488242989241
99.2432177799508
99.3392524672515
99.3488917166409
99.2048320331404
99.1341043187605
99.2507175016588
99.2756297691145
99.2900068234758
99.2613590876682
99.1254807482655
99.163978885437
99.1888523411824
99.1259825074992
99.1524955807688
99.2314084734213
99.2014574963791
99.0535547275696
99.0409579880943
99.1811997839349
99.1264858710655
99.0495508376462
99.0934893128558
99.0862773343427
99.0901178838708
99.0773711902171
98.9724466171446
98.8801801449856
98.960966521587
99.145016999061
99.1530050119941
99.0467301388847
98.8938839206889
98.9182168149923
98.9869808174196
98.9691135536335
99.0448439869899
99.1792241082767
99.1703004674936
99.1341127097642
99.0688434382362
99.0356183225584
99.0398059759312
99.0557483351153
98.9993072986045
98.9969999041949
99.0690628039639
99.0704550360611
99.0258098857592
99.0145691087635
99.089522172522
99.0927660016864
99.028870375646
98.9630498312795
98.9218365185979
98.9637107027107
99.0349162260281
99.0287804405525
98.9196318417996
98.9332978795801
98.9543843333767
98.9950442489924
99.0181664855182
98.9467681258413
98.958655705562
98.9365067229905
98.8731760293201
98.9568509144468
99.0207900573687
98.9492147461151
98.9180596123038
98.9936025069952
98.9560670004566
98.9691366124423
99.0873084950114
99.0483120127473
99.0392701636916
98.9854018549331
98.8373644366904
98.8784214415431
99.0324400241256
99.0222087106559
98.8719870801511
98.7699690535408
98.8099207812506
98.8535114238746
98.8450252173255
98.869479207466
98.9024867891394
98.9644224225141
98.9396230811698
98.8814142993452
98.9821142922878
98.9612029541474
98.851793279063
98.8372129577618
98.8489650141811
98.8510998898223
98.8423272718548
98.8682529867966
98.883198254525
98.8220413160788
98.9148785471362
98.9597722023435
98.7980608552692
98.7812789902588
98.8881043819306
98.8956268457999
98.8550513841886
98.8538868878334
98.8495492188218
98.9178416313207
98.9416827032114
98.8468917856734
98.8066301350539
98.7894144874494
98.8111332047094
98.8615880728838
98.7897692643815
98.7486578669044
98.8344399373492
98.8639439670005
98.810442311089
98.7916163633606
98.7396744077534
98.7260789119146
98.7334456867316
98.771434025786
98.7501103238619
98.7021776667403
98.6727998920202
98.6662135783189
98.6409171907393
98.6598326047189
98.73951312252
98.7617870881639
98.6506746301054
98.5191877827393
98.5306963175859
98.5883907646613
98.6188251350671
98.5987447593247
98.5848452148098
98.5621072079974
98.5564663845283
98.5655278235793
98.538028123415
98.5352154702501
98.6137567729334
98.645814131949
98.5932930844655
98.6411191253418
98.6942637137162
98.5594424506082
98.4608307883563
98.4747833842783
98.4894432156758
98.4658383734823
98.4739973427624
98.4587854735981
98.4396283574264
98.4451049081845
98.4247480803887
98.3611041054175
98.3454492410355
98.3568096789154
98.4187217675202
98.4846413962192
98.4942358315851
98.4330525452946
98.3417902542098
98.3250754282026
98.3660266438565
98.3802898108652
98.4470804200721
98.5264576577681
98.5352166130308
98.5630538394802
98.5781299044477
98.5745114108226
98.6500133090162
98.679411075876
98.5859629147778
98.5503963325738
98.5910691369806
98.6297819042418
98.586354070173
98.5768579210088
98.5464793616743
98.4730109284711
98.4333193505971
98.4244067430635
98.3600686531699
98.3585894412584
98.4055623816934
98.4306027355425
98.3740299316742
98.3726172511031
98.3295396883131
98.2295555848601
98.215818183553
98.2265169639782
98.1816468345525
98.1248720439784
98.1209272029243
98.1787007566076
98.1549442932658
98.08884482003
98.0527371301282
98.0142236972276
97.9432985684106
97.9044029660696
97.8298758328184
97.7077160840963
97.6700889454299
97.6565000249732
97.6382316719454
97.6910163301936
97.8009931491666
97.9070911063657
97.996109191984
98.0771598730474
98.1367967035596
98.2159805713448
98.2820348749047
98.2950800050008
98.3458015184204
98.4505231258164
98.5567491576809
98.6758988555468
98.7403270777687
98.9301800948519
99.2239835088576
99.4389099595567
99.6149816351524
99.9028731292108
100.19171766202
100.492816740254
100.711176332212
100.891188262498
101.068641895544
101.095495211712
100.949740209744
100.795733232865
100.609454690653
100.369832258174
100.034226772416
99.7235800769162
99.4944908559231
99.2153574536841
98.9772656666832
98.8775866485636
98.852520032716
98.8287679331331
98.8512532206033
98.8366999867519
98.7321810639686
98.6127493909436
98.5720151575755
98.5624567884062
98.5507992484279
98.4875413378852
98.4320768022549
98.4018309313203
98.4082587866033
98.4702672821279
98.5084452254838
98.5523832307407
98.6301246921765
98.6175016362168
98.6074000717473
98.6835350345861
98.7623110102291
98.8130971326979
98.8905318631683
99.0641065276705
99.2966131538128
99.5187859572256
99.6872004400646
99.6942870005764
99.5833861307304
99.4249850867545
99.2247748039692
98.9597877780428
98.7598397342757
98.6552231973479
98.5459631913253
98.4851761929316
98.419933423216
98.4020777168771
98.4050687841654
98.4246871975793
98.4073356112671
98.3925941250791
98.3486262009678
98.2635116516294
98.2983384890065
98.3308471314161
98.2712130010719
98.2563176598758
98.229926981259
98.2081733801385
98.2247396799516
98.2343281362219
98.2129589182365
98.1501266494254
98.1375640856794
98.1820916293689
98.2113736313526
98.2348774050256
98.1986597907272
98.1538081389733
98.1620456668594
98.175449330868
98.1909775120651
98.1874575210618
98.1791721079241
98.2176470680604
98.2222990808032
98.234575690821
98.254109682817
98.2557624406897
98.2431738376928
98.257483099402
98.2706944181893
98.2859712395913
98.2850397984089
98.2320938342105
98.2191869064379
98.2367050333387
98.1725228451895
98.1686081776328
98.2441904749904
98.2243612881486
98.1998690556481
98.2360335568441
98.2015622873981
98.1282028510341
98.1501447686889
98.206291992596
98.2043008105143
98.1826764935657
98.1822127395897
98.1838627612744
98.1771257894549
98.2057046441765
98.2575694679407
98.2998034480686
98.2964463358309
98.2522103334858
98.2119982353329
98.2211432840629
98.2297182116523
98.2334409857651
98.2604028418872
98.2637785976678
98.2445773960417
98.2369062726734
98.2459350190227
98.2698383888891
98.2619087301358
98.2671967741753
98.3200181920872
98.3108942239226
98.2519541072694
98.2347912893076
98.2758039249216
98.305090937213
98.2800879496844
98.2781943619077
98.3054240891353
98.2817219466512
98.2177111278551
98.2271263022853
98.2487780722484
98.2676241395179
98.2703760012942
98.2343341570891
98.2340867341544
98.2584442167353
98.2671004918117
98.2559630950258
98.2028193586006
98.161386124844
98.1378407505208
98.1431428008663
98.1537216182567
98.1556490625066
98.1576675336835
98.190504450831
98.2207466096214
98.2188910756179
98.1966750235322
98.1666759345226
98.1726232536224
98.1983456667928
98.1740669737614
98.1422832104003
98.1425921547831
98.1532685523343
98.1717619804858
98.1928590946614
98.2540006222597
98.2802709046511
98.2879545082388
98.2460508014519
98.2554859279687
98.2922167880922
98.2655194414532
98.2751150662066
98.2996741153796
98.3301742497974
98.3818422524016
98.3558710310313
98.2938962127902
98.2461055457032
98.2080861400433
98.2947726899702
98.3682770998077
98.3775513374348
98.3260029731945
98.3135137035348
98.3600293945361
98.4269785502613
98.3756550440072
98.2989760343704
98.3103402271527
98.336894021287
98.3503197829881
98.3586984642857
98.3192990821887
98.3071808214912
98.3350832814757
98.3528006810408
98.4200200159455
98.4680530322787
98.392993890519
98.4138162649322
98.4754522743215
98.4531445636876
98.3728378694539
98.3264942436467
98.3636288799958
98.3757996272593
98.3296915688883
98.3510174745444
98.3621169240009
98.3681757810475
98.400436352508
98.4272899843349
98.4525650750182
98.4437590533707
98.4809174449115
98.4972593359154
98.4155617317828
98.3748587040113
98.4484434353354
98.4914720470536
98.3910796982215
98.3338830395281
98.3443305352402
98.3269407848152
98.312034493592
98.3288664900257
98.3315545645394
98.4537332390209
98.4849037759238
98.4823867050115
98.4896148880892
98.4356874306408
98.3767026072548
98.4011716796953
98.3639874240427
98.3185878588117
98.3298632522074
98.3842048410403
98.4836196035393
98.5029091383738
98.4416152668225
98.4403869850005
98.4170451811133
98.4046778740443
98.3968594341822
98.3971935080059
98.3728651679832
98.3204590254485
98.2998359536114
98.3949864676584
98.4109914316179
98.368463871897
98.3800180641695
98.3854155272539
98.4113432455287
98.412390812008
98.3206277965605
98.3118327500702
98.3221874242988
98.3405014825355
98.4223392304527
98.4536159732135
98.4153878417135
98.4028378939121
98.3742478459056
98.3843872629614
98.4271750234169
98.3900133391722
98.3151012056752
98.3380787191224
98.3270333897279
98.3339596313298
98.3999233529044
98.3867665471559
98.3028437957942
98.3107627107204
98.3359450226689
98.3613381077469
98.351836865328
98.2952288856537
98.2543272163996
98.2770449859832
98.2701992279097
98.273259278724
98.3026830485331
98.3300866189443
98.2762531842513
98.2357928946752
98.2330937183288
98.2279087033693
98.1922728662443
98.1704561013969
98.1610456533171
98.1836588421284
98.1177006462274
97.9707507493622
97.9277574923277
97.9810522981787
97.9349172740054
97.8076688321187
97.9524070292828
98.2284892008367
98.1558691948987
98.245844684408
98.2265422808894
98.1565739522189
98.0694368789202
98.0380259221049
98.1963558485499
98.3055949435141
98.282844903807
98.232628159249
98.1711346014504
98.0334847817286
98.035373588088
98.1811347878705
98.2964371875198
98.3408783795613
98.1939728986789
98.0208351018606
98.1534022031242
98.2425661363362
98.0845552737375
98.0294153535256
97.8198742665987
97.7596304968877
97.8373510067288
97.9150810815503
98.0182869826279
98.1119848027998
98.0862393732771
98.0329001989578
98.0535727332945
98.0963308498914
98.1520856095136
98.2006922078654
98.2223665884543
98.2265524354551
98.1906405800952
98.1812902504779
98.1871025287996
98.2091342853934
98.2616616130607
98.274995824134
98.2075815555786
98.1745680531192
98.2570638063905
98.3364404357851
98.3274072054428
98.3811656370966
98.4020997504578
98.3835075427296
98.4315052773349
98.5311750500177
98.5568790762199
98.5009590214083
98.5451364490388
98.6918146743843
98.7367452486663
98.7393622747667
98.7480274493179
98.8050232345769
98.784278924155
98.7735262247466
98.7992212139781
98.7154581441846
98.6961026722467
98.8102539513302
98.8236108139463
98.7967652859715
98.7907064427274
98.86421967553
98.8462562541121
98.9523576473461
98.9549664951186
98.9994583458137
99.0273715612298
98.9850608681619
98.9953752962661
98.9585133641566
98.8134382045504
98.9321480534003
99.1321606064649
99.2887764330476
99.186722237069
99.1800474358235
99.3938393205898
99.3565184671903
99.2156672150846
99.3266013849208
99.3728956642484
99.5483465160298
99.7008502902869
99.5467470896156
99.2119788707769
99.2627902682517
99.6523805135939
99.8067709681816
99.6697170269526
99.4589409756084
99.3479543596811
99.6244709162935
99.6523635658643
99.5780841691069
99.5161416673865
99.4432261439184
99.2988872245083
99.3234469483632
99.4608497332122
99.5955226017612
99.8988828840247
100.33700939951
100.549884330476
100.705926298543
100.431497753624
100.212989361614
99.7073723754235
99.3717526246382
99.4347871512306
99.5775893491562
99.5473538506325
99.5184481785437
99.3185968617235
99.3613872436497
99.4349081807718
99.2990629244079
99.1895959140788
99.3555012174672
99.2677793851328
99.0965136927641
98.9890677089123
98.9516186304134
98.8660709299367
98.7779325542675
98.7365300170218
98.8087651123205
98.7800013566103
98.7482540896738
98.6578106244109
98.5837542348571
98.624341263487
98.691459895922
98.5882628227771
98.5764803989224
98.7754228519875
98.8421749205041
98.6433527571528
98.7544908183943
98.8833488922109
98.7456301948108
98.5685914424031
98.5413317803247
98.5701049978466
98.6818958509984
98.7546705573817
98.7931329918694
98.7395787238154
98.7507177924995
98.8735785524959
98.9230181011415
98.8619297124182
99.0424681071301
98.9330545374692
98.8437559482757
98.9881408805526
99.1086200223583
99.2760603944764
99.449730797564
99.2538069927251
99.2317594624052
99.2042397979554
99.0608001807032
99.0745797488005
99.4931342989945
99.8117736214621
99.9456337899157
99.633536161686
99.2710790335326
99.3791875701558
99.6863553249298
99.7735985712215
100.073356567974
100.062497709111
99.8685775795985
99.6752834391303
99.4582694536527
99.3020122710593
99.6021929200718
99.7420409936385
99.8800778127287
99.8630797509388
99.9961353115487
99.9897906177438
99.687704868411
99.4262566740927
99.4035948413425
99.5211059958765
99.788364403399
99.6504345205642
99.6007054311396
99.5570716769746
99.3370921453828
99.2313614898357
99.4277730068571
99.4697165693163
99.5292694677671
99.2714142799795
99.1934674639622
99.2646681813799
99.2246133576622
99.3382644033334
99.9310831850864
99.9886284221942
99.6321611127488
99.3654634983072
99.4969849608023
99.3905211996657
99.3164215177731
99.1498816245933
99.1568081666994
99.1777721004315
99.092878058994
98.7566791760858
98.5995200210403
98.4396746787
98.4400699135976
98.5695563334135
98.746276996138
98.7546682133582
98.9391772775361
98.92075120353
98.9108573460628
98.8237865942337
98.9908466079139
99.0664627830996
98.9658261494046
98.7787118108687
98.9529071865452
98.8690645135214
98.7149924008089
98.6781294988887
98.7390913707333
98.6562703856961
98.6357117716511
98.8295421918006
98.909818176048
98.8024434363371
98.7938188563206
98.8021715135877
98.8486678793286
98.8753760490628
98.9990816952209
99.0693483760228
99.0335950296725
98.8347491522525
98.9088129054143
98.9472821579551
98.8198126544056
98.6761849589192
98.8535556225458
98.9251301474204
98.9602302206174
98.9451249993056
98.9802853421223
98.9479854137666
98.9736186448238
98.9460982330164
98.8549245336643
98.6454766219452
98.531173907964
98.6435920933306
98.8554657710126
98.8989771075415
98.9501306377394
98.9394934673485
98.9872527048053
98.8572199125377
98.8662673458223
98.807239644432
98.8253948583103
98.6035454953912
98.5160290133063
98.484846955315
98.649468332689
98.7552037183103
98.6887328225501
98.5707396791011
98.5892596318422
98.5598522248945
98.5566305293154
98.3223229681193
98.3379488785772
98.4105856854402
98.4658071757713
98.6097168455352
98.5092556131943
98.4840340014674
98.5794947703902
98.5513615256536
98.4301356200325
98.4085797975357
98.5161709421797
98.57347483777
98.5519894005419
98.4339651818939
98.3758796052209
98.4279760653295
98.5451509568756
98.4593564474062
98.3062324064632
98.2002665517583
98.4301432596826
98.6108796119102
98.5635054280527
98.5746806915139
98.5567142249354
98.5191229092332
98.5336562402852
98.6926836226382
98.4827644658182
98.4363995572427
98.2149420007833
98.4060994526379
98.501523741917
98.5801269569929
98.6182657484316
98.5478781866686
98.4753717196448
98.559022049923
98.4929958262132
98.3833865947804
98.3333964753713
97.9148927436622
97.6059929234165
97.177979594027
96.6034711805055
95.6365080025028
94.5747334907996
93.4682676654656
91.7757651363894
90.5762113257073
88.9227908487544
87.2796325141359
86.262419473821
84.8600656665579
83.6471555877917
82.320513963026
80.9459176985071
79.5101822131008
78.1428686843557
76.3339455340332
75.362752526514
74.7977293014359
74.5718639025252
74.4857253341162
74.5569288652311
74.9489618075624
75.8785982752345
76.5038211948639
76.9203534026189
78.5172917344027
79.9477344527305
81.0522651616654
82.877349083088
83.2574333049456
83.5036194983134
83.7856117003305
83.5356030163236
83.4301763873499
85.4478433678264
86.4265374154628
86.4326039568015
86.3085249028896
86.625761266562
87.6277554216214
87.5438708768042
87.8477411742433
89.1053766559759
89.4649738701829
89.2448158767697
89.6935428239344
90.5867369556273
90.7256962138448
90.109609227663
88.8897302533906
89.8634964205535
92.0902982012183
91.6428256224189
90.9191721027444
92.0342630447768
92.729269952987
92.5992394246043
92.2487478454899
91.7483502577544
91.5960958620297
92.9853948734939
93.5720243077446
93.2452838122017
93.0756838188177
93.1678144983502
93.1617940535149
93.2000145003862
93.6381261880221
93.4135869728519
92.9610903373555
93.3467279458399
93.8237845688509
93.5727693375157
93.4720835873573
93.5879634439927
93.8589827909765
94.0115313492014
94.1471154035674
94.3271669158236
94.4941467471385
94.5060904353322
94.5410280728923
94.689900933676
94.7823822198767
94.8104689084259
94.8359748172414
94.7211698280427
94.4752885607741
94.2145060786135
93.707824377911
93.1203080415004
92.8811312803824
93.8622988377579
94.2162418680393
93.9908132686044
94.2415861159722
94.9599589359953
95.0746649362457
95.0175038702365
94.4229610474426
93.1877001681497
94.3968034497292
95.6221070492251
95.4856481988078
95.5639830802624
95.457913968434
95.6180508687151
95.6088136330606
95.116123424209
94.8177099004017
94.4962457159692
95.3423055972373
96.0554360876862
95.8715438871393
95.401201893221
95.9130531817509
95.8876258815534
95.5115197809111
95.3612427761369
95.3773208731565
95.0910411175041
95.1990157025866
95.8231578967893
95.7305609253403
96.0688853005411
96.0792625754358
95.4763297594541
94.4893698825995
92.8806043324857
92.6672938708574
93.5030370583122
93.8431753964927
94.2178203702539
94.8139570215908
95.6438671794889
96.3441520337339
96.3829723840571
95.7942380619667
95.8827950944261
96.3403075912848
96.467038711862
96.3296688779631
96.0476488152866
95.8350059666933
95.386344480786
94.7021003038376
94.2078175094813
93.9548075224016
94.6606007508586
94.9092920612305
94.9270264392299
94.9468097969134
95.2306967975566
94.9053350801199
94.1647357862891
93.6074990775189
94.2593392604527
94.5703474337408
94.3942310244395
94.3776083639353
94.3693049467889
94.7354841766621
94.9136850865837
94.9609977906624
94.8922146845746
94.7290502010525
94.6395645491687
95.3989069370827
95.6965009920495
95.7640976292824
96.0681084221508
96.4116869261952
96.4390213008288
96.2762085818336
96.2542930668628
95.6832837678876
95.0660311660635
94.376307179087
92.818675761674
90.7854657947178
88.8509554723694
87.8130983895858
87.6449039972603
88.5130824619147
90.0039996043908
91.1041569866032
91.7325707719514
92.5240273342862
92.9801586625826
93.5860024027089
94.1701242216695
94.1877867604571
93.9981413973619
94.1033419328648
94.4956664879382
94.5628153401778
94.6017493276511
94.5389446916807
94.4545334275592
94.1648328802273
94.0376191602972
94.1302471101689
94.0905238022887
94.2558355746366
94.5792093998033
94.7410321207438
95.1042059188222
95.6674233311284
95.8922521141665
95.9125269169391
95.832521847958
95.6371835691316
95.2045565068196
94.3979776372919
93.1194370389007
91.3358334254901
89.2980940208007
87.4654126242653
86.448224412776
86.9831631172802
88.5524234819941
90.4678005317604
92.2946875836263
93.7803278873501
94.7535604630083
95.2940552510208
95.5219891711588
95.5550483364977
95.4544698011023
95.2765796819339
95.1222042851974
94.9508806777573
94.6951693406967
94.4542650213082
94.171836854833
93.8232596517456
93.503640698736
93.1936182274458
92.8548725564473
92.3930795914225
91.7678407953409
91.0439338566859
90.2846192209688
89.5277254226966
88.7630372950629
88.0115489444434
87.3030217654571
86.6283730995042
85.9144483556227
85.1827583543938
84.4510985572908
83.7556400667879
83.0694795683946
82.3633777787047
81.634632099312
80.8865088366633
80.1330556445402
79.3960302609726
78.6568287490525
77.9425458804324
77.2881053677349
76.7220659176288
76.2382406283115
75.7872145861065
75.3431450050557
74.871895359231
74.340206413194
73.7782625454271
73.2371741620648
72.7443730131988
72.294132300626
71.9380436702457
71.7149478385429
71.6690495228572
71.8032213712864
72.0955237763425
72.5059949892341
72.9966223189419
73.5016965136864
74.0125416771092
74.5515258158093
75.1118886439864
75.6879176904441
76.3647457431816
77.1314997656733
77.9281859699489
78.7055843086077
79.472881359795
80.2008982749309
80.9016558619904
81.6159748794332
82.3352011966586
83.0374797755294
83.7322234326886
84.4227435903052
85.1224058304555
85.8185426533352
86.478855128416
87.0612350901259
87.5852570313251
88.0680196429723
88.4830906072511
88.7953964689633
88.9918791422559
89.0743832631246
89.1003991662647
89.1519949251217
89.3136051944023
89.6318589231954
90.1216417005147
90.7197973734179
91.3137082768463
91.8033756651085
92.1436174255115
92.3779821782119
92.5441164052454
92.6121781808621
92.5971778231513
92.4811076730535
92.2574900753998
91.9690834452264
91.5996702823345
91.11851494939
90.5220879933545
89.7870161974767
88.8785766638868
87.7858177371249
86.5060533486635
85.0624377500215
83.5751998617687
82.1952506756298
80.994524777241
79.9614929512181
79.1144879956921
78.3964157389744
77.7656173867653
77.2829099452823
77.0238059889918
76.9796351333239
77.0509987214177
77.083926163608
77.0212014267684
76.7930379876401
76.3349139775184
75.6985533997732
74.9969540189203
74.286508682444
73.6525792817538
73.1528240350198
72.7768744136907
72.4889728338762
72.3019832279737
72.235163618322
72.254106318488
72.3221820274332
72.4363796634532
72.6057800550779
72.8646667347316
73.2562502252458
73.80160711548
74.4365448712166
75.1249705576664
75.8290964226979
76.5345074475112
77.2215787034624
77.884679447517
78.504810126218
79.1108964236887
79.6906892923715
80.2065726988431
80.6121253059091
80.933929725751
81.1696908364064
81.2895642746977
81.3370658669989
81.3413044356732
81.3349676482497
81.3764456830768
81.4910629341993
81.7136693947131
82.0174174560197
82.400939536189
82.8769865677946
83.3962652214647
83.926675020672
84.2540308317705
83.7347483054892
82.1020139939151
80.0893056886894
78.3314669007262
76.7004158072263
75.3338401118868
74.9119614284676
75.6360038814866
76.9534724475636
78.2859891351439
79.3918457881458
80.2426207450649
80.9068649184998
81.460597737576
81.9456699550129
82.4050779342247
82.8075345258055
83.1455148206502
83.405651477717
83.5919099933592
83.7085065785601
83.8202193655273
83.968896918853
84.1252198048927
84.1821110965066
84.0701259620144
83.8033503727187
83.4111954230222
82.9321267053957
82.4671415203043
82.1561176001506
82.1110061367189
82.2852586717227
82.586362006872
82.9791302913206
83.4079532175287
83.782232756886
84.1303965232591
84.4621495029907
84.73338333946
84.9831351920266
85.2531915737852
85.4726408510672
85.6825518620883
85.8709183699533
86.03101095643
86.1971085215809
86.3611801164299
86.4912676531638
86.6503853866348
86.805512775685
86.9420953499128
87.0666878186058
87.1727160810347
87.2831753178485
87.4394042244064
87.6259646162636
87.7782694289273
87.8841894069655
87.9657889083574
88.0277896691151
88.0908249513173
88.1040980433627
88.0493405930599
87.9426045769466
87.7631382426149
87.5713580000613
87.410988049346
87.2890386953661
87.2395117889185
87.2913929205299
87.4089518773529
87.5211976714497
87.6492262147479
87.7690573608113
87.8038469507273
87.7008681818802
87.3932046490249
86.8689261881856
86.2046385564052
85.3821853771504
84.1158897606645
82.130941426672
80.192427397684
79.8774192630661
81.080152857667
82.4315640506913
83.3845282099814
83.9558257015786
84.341911775292
84.5805430780977
84.6417058840765
84.606171495197
84.5166974026013
84.3306466478688
84.047601546038
83.7234821694568
83.5264362083287
83.5788843364832
83.8619910924617
84.2028077929785
84.5504371629182
84.8988211253391
85.2174417776994
85.5143732221967
85.8355963935331
86.1709659563462
86.4554200802015
86.6822942514205
86.9230150522376
87.1049968942905
87.2826949719358
87.4898993222961
87.671174764547
87.777330036632
87.8689873398217
87.9972097881922
88.0582289250405
88.0800563921571
88.1532117060556
88.32119445489
88.4696371354675
88.5656317740743
88.4452132115656
87.8722729223628
87.0946216932654
86.7512323309164
86.9902058620605
87.4211177172497
87.9011453060876
88.3573130983442
88.7627160597116
89.086385826744
89.3330776453092
89.6244082520265
89.9082222152441
90.1486677513402
90.4555536949234
90.7745353054307
91.1073715985898
91.4000715677081
91.6980788533124
92.0736090634098
92.3298704389758
92.5244049548431
92.8785248485603
93.3550908963274
93.6750818670808
93.9240055531721
94.210799895014
94.419537947225
94.4326398236351
94.2329217747956
93.4460290972359
91.9432568695744
89.7516213964767
86.971443817678
83.9984830937907
81.1937439077857
78.3312579987914
75.2991943161115
72.2525100056523
69.42263184084
67.6141015143332
67.1052962356876
67.63230533973
68.5602227617552
69.5352397741577
70.5816601811899
71.6565140946286
72.5929439353286
73.2349732569844
73.7912283846305
74.5861059842007
75.2487664940441
75.8616566502029
76.7047016262588
77.5618693945938
78.3143174101944
79.0417694457774
79.4346083430183
79.749660248244
80.2283066555549
80.7261404008772
80.9795000871612
80.9536802545414
80.8294664960066
81.1414888971082
81.4766250751633
81.8248812233073
82.1359362617496
82.4069357393571
82.5276979438346
83.1695229808716
83.1056246466506
83.1057675527586
83.4033733625382
83.0888321172601
83.1538594218225
83.8095053228151
84.14619735934
84.5106934982808
84.7218231433702
