1798
3999.43349933624
650.420452594757
1
128
4
96.2828954966865
96.2831602640791
96.1920968868528
96.1715454868145
96.1985290995185
96.2615351032206
96.2835143613259
96.2879096314494
96.3011329524558
96.3535459711699
96.2521963537122
96.0586249179516
96.0531064409444
96.1368467790912
96.1978362095525
96.2204202881144
96.2340722189585
96.2943266138316
96.2663655189898
96.2474803870557
96.234978841047
96.1853771468091
96.19679883597
96.2927237293645
96.3529224453509
96.2438249449217
96.1782936956099
96.2390569296831
96.2570259169323
96.2431496701703
96.2204139804052
96.2564583160374
96.3421136912314
96.405036814604
96.3067833566781
96.2511664746821
96.2583098782592
96.2102710239364
96.1542940352797
96.2304141057117
96.2972453305964
96.3066427229141
96.2488889582909
96.130831453323
96.1887895823158
96.3037232493689
96.3794862853332
96.3866041532403
96.4158443323737
96.3172773444362
96.1178567361205
96.1002799319769
96.1441526246134
96.1908283901204
96.3042630279787
96.3686202208931
96.2743584427309
96.2040488317974
96.3675037467235
96.2331835860097
95.9637799125144
96.1782971870092
96.3237951060319
96.3292159652412
96.3929097163426
96.3297281260416
96.2477715733502
96.3329670129471
96.1539480378311
96.2971674296987
96.432612186403
96.2753680620572
96.2582329323534
96.4096234137849
96.5185356653029
96.4522153767644
96.2355405075034
95.8470337847468
96.0201621961179
96.2815524988201
96.3977379633566
96.483086842357
96.4499580434615
96.282879557517
96.126492124445
96.0448688679723
96.1954333908624
96.3654269668278
96.3406508187123
96.364115443892
96.4310569479935
96.2484514463046
96.2318128036089
96.3244850999283
96.0207368256861
95.9833205685773
96.2077329335735
96.0564268331403
96.1714009327109
96.4213222007725
96.5451128977834
96.3491311808077
96.0325561305179
96.1584736188452
96.1791247823924
96.0247647193467
96.247803414462
96.2599261425239
96.2495097505922
96.383948785922
96.3777758107701
96.2728861312333
96.2667740255803
96.2629870213408
96.2173970629145
96.2567056197204
96.2221188860809
96.1375028087864
96.31994488712
96.2994870708254
96.300020693852
96.2270411656256
96.1352734580968
96.2837705956488
96.2486489302067
96.2428157417332
96.2413000410533
96.1762807256428
96.2254352178602
96.2697409766524
96.3522250007574
96.2955807734357
96.2111626548995
96.1839743225988
96.409203855073
96.136867266545
96.0105673450993
96.3175791514504
96.5541608557282
96.394703458117
96.0562927984241
95.9852449235093
96.0326718531936
96.2867236706437
96.4425281977662
96.3933458435193
96.2890051775241
96.176094886391
96.2422325519872
96.29923855117
96.2997059251014
96.419603402293
96.3198988925161
96.0901736611559
96.119005142617
96.2741655698683
96.430165180227
96.4565964366209
96.2279802547661
96.1445486644164
96.314527038769
96.3158264418259
96.3498065359522
96.3596648777322
96.2134510412406
95.9999529325313
96.0465308614714
96.3426538516417
96.367643423333
96.3758061178215
96.3131478407713
96.2339307531452
95.994530039801
95.9968984204796
96.2880269229995
96.1805836652978
96.0471055045388
96.1284376435483
96.202937198929
96.1873070181143
96.1103015789238
96.1188305744886
96.0863723988911
95.9753038984543
96.2192568562682
96.1971153424134
95.8746430439165
95.8040095147909
95.9415538967718
96.217817989676
96.3048107460895
96.2136935092579
96.1009281529137
96.0300252685834
96.0286053560506
95.9763660304472
96.0261421450193
95.7766068343039
95.6623258645162
96.0263785621626
96.2182034878827
96.1659598640865
96.0750382445798
95.9169862946979
95.8165652294459
95.8750018976682
96.0086427948274
96.1804975258169
96.1283535000271
95.9822730564495
95.9857585492708
96.0534321873685
96.0983427122778
96.0743213177394
96.1176752681279
96.06747209706
96.0095108577449
96.0260604183826
96.1061511467623
96.0274316336419
95.9258578919064
96.0052257985024
96.0860268004497
96.0912950729489
96.1073373729066
96.1188381552335
96.1131086194683
96.1060186306131
96.058690588111
96.0742330013174
96.1082747632814
96.0875362072929
96.1666332851765
96.1980302013913
96.0252789777825
95.8914147761269
95.9650288600151
96.0008651473983
95.9525414734344
96.0616844229696
96.0765682381819
96.0540274402958
96.0064096028852
95.9228934305561
95.8464531902288
95.8517391461148
95.8832642172141
95.9645038908549
96.0128450529466
95.9991573081435
96.0499679577394
95.9820330000552
95.9518848540641
95.9853143244339
95.9730284089942
96.1159126791031
96.1081114330023
96.0061754183406
95.9574101995991
95.9044267271143
95.9258705623826
95.9393689653567
96.016833038154
96.0868838680677
96.0884406451098
95.9922915184278
95.9529907053431
96.0446993836922
96.1965153102693
96.1957421734508
96.1077149572774
96.1072950180469
96.1733914940511
96.1022886797237
96.1017251028579
96.1608087287256
96.0649879967829
95.9747157196353
96.0280404262823
96.0055409401122
95.9836709577811
95.9890721604794
95.989266025401
95.905378464831
95.947098339714
96.1460269588608
96.1962060072956
96.0979062781597
96.1605063840113
96.0854811999455
95.9281267494513
95.8551704343244
95.8264083490632
95.8284736073612
95.9104596133822
95.8889838619385
95.7910444480101
95.7002826172454
95.8394720792238
95.8814691155541
95.7014814135125
95.5720918296394
95.6051623835099
95.6353012301004
95.6375803830533
95.6365915777226
95.5907886092793
95.5305142782076
95.4347691287502
95.4561116720416
95.5566831502622
95.601595568999
95.7046040077507
95.7016636628495
95.7997534185815
95.8741579169234
95.7522384573721
95.7377702491906
95.833636534809
95.787027422132
95.7566279962922
95.8702409609023
95.9684353819028
95.8895794114351
95.8282073210211
95.872037479981
96.0493980356312
96.0345238668434
95.876189850691
95.9050789798363
95.990821019928
95.9875416722832
95.9533119616632
95.8916784184591
95.8672209665735
95.8302094582906
95.7772042265649
95.8347680935381
95.9028910288652
95.8904978381428
95.9218460584985
95.9457421558627
95.9364974439557
95.879445884249
95.8186524420021
95.7398316786003
95.6834619473077
95.7680174829571
95.9230645561991
95.9502034886931
95.9161531850443
95.8340022594986
95.8487428928927
95.8052779538945
95.7670648657869
95.7596302281097
95.8105530318947
95.87548385931
95.829525223381
95.8502284238777
95.9306263589124
96.01335637706
96.0334120028889
95.9779918521791
95.8345429670612
95.7972156498668
95.8231364668665
95.7868139882188
95.7578794809451
95.7720226899728
95.8426829425497
95.8353495701812
95.7927469325797
95.8300645744417
95.878366508728
95.8442131326391
95.8442153660971
95.83934149342
95.7746962510978
95.7801577331996
95.8856490212561
95.898469550338
95.8328725692292
95.801966076553
95.9217915379439
95.9355028064246
95.9219019025215
95.9647024706031
95.9492186700316
95.9158224337857
95.8815066724233
95.9430253673407
95.9507402677644
95.8534061837985
95.86620948775
95.9261256473072
95.9311082710375
95.9239723630951
95.9958878689072
95.9202726865622
95.8699197963507
95.7956198093839
95.7776688010612
95.8798352073607
95.9408449579211
95.9052869970964
95.843099036769
95.8091618273037
95.8306111542653
95.8485096620155
95.8655070637301
95.9494091372143
95.9238703528682
95.8552774967788
95.9206113899225
95.940934314369
95.8956892407039
95.8447395115087
95.9137367890943
95.9716596644631
95.940229459467
95.8521235056417
95.838112694318
95.8478333680428
95.8542262165743
95.8528406102689
95.8657808884179
95.9315031157651
95.9689528886391
95.8917769601069
95.9487716773897
95.9744487543124
95.9613467891018
96.0245423535932
96.0050566877947
95.9360310439087
95.9261913171892
95.8894523479239
95.8599789463915
95.8378613320113
95.886442079924
95.9470102628934
95.9011562227011
95.8486942446134
95.9308859912981
95.9582505766073
95.9611501976364
95.9692662105554
95.9717695514374
95.9163437610973
95.9076466325504
95.9291558335282
95.8744230895719
95.8579658923449
95.8617285254582
95.8686931323886
95.8344124373555
95.8903125370747
95.9237252810166
95.8500241034008
95.8819125831435
95.9445265842915
95.92871893824
95.8315451675786
95.8078565514126
95.7851435068355
95.7808128145146
95.8253883407733
95.8571371951685
95.8145028031342
95.7620352664545
95.7302361253156
95.6679894227084
95.6343406521168
95.7247555964138
95.751761507351
95.7155800758596
95.6999516438395
95.697935374545
95.6790069460165
95.6576856068368
95.6083785767701
95.6007389623594
95.6251336460067
95.6525529756663
95.6435507998746
95.6843388989261
95.6934950298452
95.6242396108694
95.5606107490066
95.5600838115766
95.5505210001813
95.4734995164672
95.474394048762
95.5505462734111
95.5553265029878
95.5019424554504
95.4865173211792
95.4989722224249
95.5009520459627
95.4415695655291
95.4394589352333
95.4846388481165
95.5256926570796
95.5211532497403
95.4636358296278
95.417168245406
95.4331781160567
95.4419803749526
95.4526451318377
95.5075997486403
95.5663604932729
95.6093704916152
95.6233425464827
95.6353001549934
95.7122287738256
95.7961079961382
95.7484035081717
95.6463863598481
95.667127765862
95.7011379256687
95.6837383155315
95.6434938790395
95.6099534731028
95.620119764314
95.6249732284855
95.6028843618221
95.4668011094734
95.3158332116232
95.2518109298226
95.2384628463095
95.1947669162581
95.1398580831885
95.147550156473
95.1696571194104
95.1258768448803
95.0490713622051
95.010448489216
94.9960557051574
94.9973700025228
94.9627248002395
94.8898492911785
94.8555405590597
94.8072659409393
94.7540202980252
94.6603482281718
94.5891774691757
94.5117617128558
94.3443439376333
94.1508709648934
93.9870933783995
93.8587422171812
93.8111487753609
93.7292710095893
93.6816141003392
93.7284729720623
93.7300920109725
93.7095983417578
93.7954538006059
93.9031120317
93.9629001416517
94.0720522963958
94.1666368839117
94.2798642506361
94.3647122376136
94.4571279063186
94.5436613518776
94.6290583925487
94.7279546789106
94.8032459416121
94.8860840933524
94.9430303647853
94.9814561946993
95.0396247648544
95.0491060125415
95.0353455102979
95.0332920407968
94.9898573422707
94.9716414380087
94.9651441367219
94.9620422046153
94.9287396452956
94.913420693003
94.8828002120168
94.7888953512149
94.6788976635738
94.6462214939594
94.6229609321585
94.6358576403382
94.7208712504097
94.7679466025103
94.7729737482195
94.827858417572
94.9262775693555
94.9861755800274
94.9724784736843
94.9705581802408
94.9642584528301
94.9808177103064
94.9791907363018
94.9961165788966
95.0177397686475
94.9983844636782
95.0652295294712
95.1227220756036
95.1269525104552
95.1619708236286
95.1894689758947
95.1382220432324
95.1182165316749
95.1828178340732
95.2018706212844
95.1613695458582
95.1728668482391
95.2105892952365
95.2214784620771
95.2185005941922
95.2417044320031
95.2868726565181
95.3365509692051
95.3749084443355
95.3968523660141
95.4213027779719
95.4451437942646
95.473575425366
95.5472043786274
95.5944203634368
95.6091332075488
95.5614812228003
95.4997677221231
95.5533355696258
95.6272857875474
95.5878034672541
95.5423680138412
95.5455914252808
95.5608793911057
95.5717020283321
95.5436356072724
95.5179607195749
95.5170666536434
95.5299807427523
95.5283753188769
95.5265595929893
95.5643949798066
95.5953736509903
95.5993770858022
95.6021836536166
95.5751194967883
95.5538430282661
95.6130958038532
95.66731103862
95.6703498111618
95.6424083868831
95.6201866024571
95.6684699156078
95.6875743273311
95.6482000573704
95.6274343982066
95.6855021581855
95.7248868342501
95.7162198149429
95.6477162593922
95.6165380984303
95.6439415441861
95.6952863951101
95.6713388280831
95.6374602804325
95.6549011284508
95.6713750704928
95.6760660130169
95.6840073551983
95.686151039514
95.6779831658868
95.6834234596557
95.7176734492802
95.6998150934247
95.6627414783416
95.6804110630933
95.7045242841309
95.694089787937
95.6966702447002
95.7212797835287
95.738892684128
95.7494671236347
95.7605690142445
95.7473638091291
95.764233189929
95.7630718352751
95.761481922816
95.7642176997389
95.766610392461
95.7904230893819
95.8011489296481
95.7859331710523
95.7836014184788
95.7896053142324
95.7953616218259
95.8140296749286
95.8107880026701
95.804153551017
95.8238058388463
95.851053475174
95.8386203976169
95.8071621334158
95.7836241891399
95.8120220191774
95.8379251377527
95.827180240932
95.84885617314
95.8398899514739
95.7713066582265
95.7563196729376
95.7628158476602
95.7747245074438
95.7900836797691
95.8021495026954
95.7674152529595
95.7104910348125
95.7116221752779
95.7440922921798
95.7586934291723
95.7415776262492
95.6931398927722
95.6856222981831
95.6930077590622
95.6951455141504
95.7071516952319
95.6942441912045
95.6487043488283
95.6430531456361
95.7050159586239
95.7723465124685
95.7814646183026
95.7215036661173
95.6788378501388
95.6911435184941
95.6962671572908
95.7194824478262
95.7884021997622
95.8196103930558
95.8195736389136
95.8001506351727
95.751613554032
95.7848963360073
95.8558517399753
95.836564174989
95.7959905389991
95.8162000102498
95.8060958130423
95.7862994988285
95.8037065559424
95.7951783192707
95.8392487064388
95.8578729455973
95.789421664117
95.7899021527463
95.8583658163732
95.8860634203792
95.903146241388
95.8998109829494
95.8947808344318
95.8876487106974
95.856201533037
95.8482943000863
95.8815745632472
95.9203127467572
95.9285364730417
95.9081690677242
95.9208931950049
95.9059050163215
95.9094890127012
95.9370646030628
95.9514734076594
95.9744730303293
96.0135190762371
95.9965371326157
95.9604823547058
95.9273721475446
95.9635781387557
95.9839223381945
95.9164344448321
95.8395822057829
95.922302197432
95.9928596052471
95.9454182599984
95.9543380628904
95.9809339344875
96.0416524778427
96.0812411202342
96.0159614797215
96.0038992697946
95.9801664993451
95.9020207949751
95.8662918138462
95.9320036485351
95.9905928391654
95.9698954382812
95.9416071722423
95.9845007906323
96.0655144534768
96.0746792941189
96.0188100709291
96.007627043572
95.9740864255749
95.9507080449534
96.0148972729185
96.0316383533444
95.9365015399604
95.9085765298175
96.032179734781
96.120405451294
96.0970435790074
96.0607222985587
96.0209919568113
96.0550160058042
96.0606679652816
96.0053317144818
95.9850931119034
96.0216196938
96.0510694589406
95.9917910032293
96.0090573740826
96.1286981680765
96.1879996651086
96.0995367028634
96.0263883325294
96.1403471234366
96.1956938837826
96.0873979670058
96.0396011366393
96.0756775822839
96.0170238479801
95.9973081680738
96.0855064703193
96.1463283879577
96.108617252371
96.0759819026918
96.0981983945217
96.0938813512251
96.1088790032614
96.1507388126049
96.1437115829795
96.1154992994072
96.0996393402637
96.131350940057
96.1553399123537
96.1034237123333
96.026644490346
96.0290049137894
96.0746392658934
96.0363552943363
96.0052684632079
96.0448576111187
96.0207779487493
95.9795389947759
96.0045584821323
95.9773912891433
95.9875290921081
96.0501806691951
96.0482276927132
96.0236695512826
95.9550223945312
95.9715298959407
96.0493221931236
95.9950534861783
95.944356159572
95.9692042784791
96.0114460306238
96.0337118650726
96.0174265800245
95.9749102034917
96.0012976545991
96.0737767909782
96.0863481799062
96.1214910190475
96.1763047990797
96.1421470498134
96.151237451518
96.1579364653393
96.1536094500758
96.1715838571498
96.1927437035541
96.2147374462609
96.2280430713579
96.2549379169166
96.2022474842029
96.0991649860076
96.043085987437
96.0610851618906
96.125283857489
96.1247946771413
96.0538191909725
96.0313004721102
96.0856230147067
96.159606917847
96.1835802522285
96.1685241292048
96.0993578788157
95.9215719095369
95.769835620178
95.7930952199686
95.8797434251683
95.9225758835236
95.9653562630428
96.0773278035352
96.1480036562325
96.0863421210005
96.0470485431859
96.0905447945479
96.1061066668584
96.1112154156758
96.1445646315758
96.1593767797294
96.1079961133231
96.0516382735245
96.067485336432
96.0859192649827
95.9982382427631
95.9196112162803
95.9785612135839
96.037441130551
96.0076289620787
96.0363042556682
96.1205065614219
96.2098978376069
96.2276629478112
96.2305629276909
96.2768910294165
96.29073124012
96.2695878947711
96.3484893814856
96.4655063179492
96.4673628071692
96.4012395942327
96.2818373373825
96.2513952999209
96.3190560334031
96.3712203317542
96.4884581052043
96.6352958897092
96.7011854535087
96.696744723706
96.5528417727356
96.4357463320699
96.4784750068362
96.4988356641138
96.4469822873997
96.4650987746741
96.6764310905775
96.7251484979268
96.6572113357014
96.7396586869794
96.7979276668417
96.7726823994554
96.7289315347257
96.8015148373886
96.8460569173517
96.7920893743536
96.8021770460965
96.7650457297211
96.8427395017533
96.8892818452091
96.8470542602734
97.0100351726008
97.0750701068213
96.9642821595241
97.1174545877155
97.3243092445238
97.4752456861971
97.3300470851158
96.981999247008
96.8764236188528
96.9280015424094
96.930991725774
96.9207509066989
97.0427333654349
97.1566531656955
97.2196425313696
97.3053714106245
97.3991632394105
97.50538243225
97.5195615463015
97.357180741003
97.0742268594875
97.1060824995904
97.3332835413107
97.4517738134024
97.9798905778921
98.0620290359561
97.4432398763218
97.3177854589349
97.2097746288687
97.1304029623389
97.259918166102
97.2074130902755
97.1649852364308
97.260729008654
97.3904280053611
97.3323766386502
97.1758362785215
97.2387942430255
97.3831372665359
97.394354084148
97.1261258784792
96.9092817859474
96.8040222106233
96.6927243452463
96.7637457539969
96.7000914512567
96.5047863629803
96.4636700400129
96.4248518075177
96.4025424178861
96.4869836958193
96.5376029366151
96.5928567368468
96.6767181884518
96.7228417863027
96.6202105589487
96.5685218917185
96.6673998758106
96.7277850022632
96.7386331197754
96.6617259424911
96.6545343606701
96.6766595537536
96.5469279485611
96.510565120614
96.5783015912178
96.6675777712275
96.6594280459693
96.5632483242454
96.6121586612228
96.6479136510072
96.7452104241417
96.9372256910139
96.9148063090673
96.8584685878109
96.9888063433605
97.055501135474
96.9795997252905
96.8913236401621
96.8772811026102
97.0258624203236
97.2875460924407
97.4393152841208
97.4766243332236
97.3801392529723
97.4562338366099
97.7874176318728
97.7011440576699
97.3038933008479
97.1855122077007
97.5246291930317
97.7560195624795
97.5474980306247
97.2415732352033
97.2047246292213
97.3854060628321
97.5160198958349
97.7034194133591
97.5736915518165
97.4054997980133
97.5933093341607
97.6322590335909
97.680876626454
97.8246946795081
97.6869213720307
97.5180256883286
97.4572451691287
97.4997080345011
97.7374743069037
97.9015964302678
97.7636094061796
97.4213307130916
97.3511408608306
97.4422814632631
97.4986239771528
97.5698086849184
97.531682414603
97.43541305796
97.3532508423934
97.3128402320196
97.3830244681719
97.5635426708229
97.9063355098895
97.9641602117656
97.6811929202649
97.4251994056932
97.4028509380411
97.4435493303223
97.3945775919978
97.294083416486
97.1030472464832
97.0576655729952
97.2471532677557
97.2942566845725
97.2444690923745
97.1482551235574
97.1142479178848
97.1776419499342
97.1941120047082
97.0343412760094
96.8592517514565
96.8803653906965
96.9498394268574
96.9115018915173
96.9375541160946
97.0720971923837
97.1369448180881
97.0666677328968
97.1234209223243
97.2581629500052
97.3270463515188
97.2752825431923
97.1765259606174
97.1999788267317
97.3392185224355
97.3248215686732
97.2631135482822
97.2526679627919
97.1627342706877
97.1778071800808
97.3340278629801
97.3420028862227
97.3236877128058
97.3652444177972
97.3010883808171
97.2725411204939
97.3381231264057
97.3649323956526
97.3851810703546
97.3925084161204
97.4678529902552
97.5142025215098
97.4161177510474
97.2805631539412
97.3172128017487
97.4184639782632
97.4220180500281
97.450064755078
97.5460839812853
97.5069931193501
97.4466302425889
97.489102178656
97.4926204364671
97.4604192504325
97.4603508156786
97.4342420663363
97.4162949293277
97.4189430259331
97.4135445595243
97.4463463195234
97.4867123961466
97.410625625922
97.3660703458237
97.3236455599474
97.3025015674014
97.2760130156859
97.2244445134506
97.1841111478133
97.1837162239009
97.2226999902185
97.2126936570985
97.0730490121654
97.0741425247165
97.1013758428877
97.070473770821
97.0680983054837
97.0814768481712
97.1071325190238
97.1430120915053
97.1869929201398
97.1730732414555
97.1197229818696
97.1404433431075
97.166209233589
97.1419599416477
97.1485195019321
97.1773593974489
97.2292632446748
97.2949954573448
97.2755464240158
97.2497649329729
97.2156646551276
97.2173037531787
97.2488511643801
97.2868958479408
97.3150372249935
97.3397853166613
97.3756124801081
97.4046184861734
97.4413220851395
97.4131493268734
97.3570509069732
97.2867283922969
97.3366094668178
97.3259808134802
97.3077590092195
97.300524054226
97.2325168663483
97.1690251183102
97.1360193870983
96.9976279311404
96.8619871452709
96.7310116221968
96.3941571256806
95.8553127140616
95.0999839161044
94.1800048262065
92.9663931866222
91.6077900816853
89.9156855452093
87.9254286480984
86.597325421303
84.8660790973246
82.6922902203408
81.1540688898795
79.4201256888127
77.7510863056051
76.1541050180166
74.4549013463437
72.9116056616438
71.4669940735723
69.545682802691
67.9883439698876
67.0406428269218
66.5005881512799
66.3558137014441
66.5735196262568
67.1889674562956
68.4664421256653
69.4469731221227
70.195479223407
72.5223737322722
74.0780423257882
75.609520864623
77.4307863961219
78.0321882019823
78.4913866769678
79.1456457827896
79.0334106374079
79.392823929711
81.6295842580483
82.4788550152742
82.5273263739364
82.374705817447
82.9873374548127
84.1215790124726
84.2325615377294
84.6757338854151
85.9797350977279
86.3750459292024
86.1688346352112
86.7473916550228
87.6707458199835
87.9485981204879
87.5411227436056
86.3991319048
87.862913751702
90.1763162610695
89.6822600571438
88.9567634906117
89.9287705682667
90.525809570958
90.3438443012464
90.0591922190294
89.6581141372665
89.7077044637684
91.0273786936152
91.5111023778166
91.1592794961078
90.9158837993753
91.1146621462428
91.2062673397248
91.3840108019946
91.7968616026526
91.5949902779404
91.1027904892347
91.4465923499908
91.7647387466251
91.571285268821
91.4943806016869
91.7092404565403
92.0092183046195
92.1733752655873
92.3451041718607
92.6021079295128
92.8093018802941
92.8856102004874
92.9778499359663
93.0991995539344
93.1592301738359
93.1965654937158
93.1809489299865
93.0527821993828
92.7772580496088
92.3466610064103
91.8627000498047
91.3153522227224
91.2455616312649
92.2325914367558
92.6442283407003
92.5181258237032
92.923755869424
93.5340322517865
93.6707001707217
93.7077212980733
93.2937118280908
92.5196633819366
93.8796211259841
94.701014544824
94.559766909097
94.4640765029142
94.4159751870351
94.5465198731026
94.5198096656136
94.3264166956064
94.2705457890212
94.2865319834946
94.8966049772588
95.2784749440971
94.9837718907839
94.6613136757875
94.9154373951512
94.9307598448366
94.6758339384406
94.605282056661
94.7053306629515
94.6507309684163
94.8888752969382
95.1496869904361
95.1275561296225
95.2253973464523
95.1074246098483
94.6530731925308
93.867172110893
92.3801211849984
91.3926638804936
91.700049178067
92.1812474618074
92.8199452474973
93.5879786724679
94.4808133272308
95.1250749100517
95.2013535210641
95.0097045318264
95.0932396825987
95.1933802712737
95.0502151474048
94.7480239714941
94.3990857245828
94.0913411458372
93.6915125381737
93.1847994584897
92.6126753784051
92.1523471685414
92.3115842218242
92.5016808656305
92.5764423643963
92.742750808897
92.9604009609017
92.7837541812801
92.2841522391132
92.0319819659487
92.466095561975
92.4998080455416
92.3095137258747
92.2424856619672
92.3471069351235
92.6387480087259
92.7977288479827
92.8558033482453
92.9126363104976
92.9103240984486
93.130460610813
93.7925432536646
94.1419604866188
94.3206369885825
94.6360009456242
94.9732331418926
95.1186516884106
95.1307556824299
95.0583910009649
94.6822744693052
93.85492273773
92.4699663348143
90.3345081464027
87.7444051571507
85.3988318150082
84.162220267748
84.1569058058229
85.3789726749852
87.1364284286308
88.4174257297076
89.4543414900476
90.5184704867858
91.213626486982
91.7918646121998
92.1647867384121
92.183751884201
92.1209026507018
92.2568943838122
92.4187720119884
92.4278837582489
92.4655731475114
92.5184542423792
92.4924343748245
92.3532137759533
92.2500937808489
92.1962387856454
92.1527548301096
92.3457718340765
92.7225769025855
93.1202115511513
93.6185532001848
94.0632046777391
94.2408605065914
94.2489831810563
94.1490405338408
93.8568122079286
93.2538494642054
92.1700769816086
90.4402198435757
88.0979599184468
85.5210049800731
83.3453940996356
82.2767903057212
82.9089603528482
84.7590759119826
87.1006726253341
89.4008864633525
91.2883754142189
92.5825287742834
93.3374059132581
93.7071606335011
93.8061758019076
93.7306530677373
93.579826273124
93.3866668339461
93.1402380203376
92.840249362899
92.5123600793865
92.1435682678355
91.7378763452933
91.3246212090668
90.8952121729445
90.4443900350623
89.8876779475228
89.1546221783806
88.2860284508827
87.3422599668179
86.3952103784744
85.4843265871956
84.6147703986914
83.7436762863835
82.842362050696
81.9188361968152
80.9859885719576
80.0378688121391
79.1067681359504
78.2124364996514
77.3231379486321
76.4215681344434
75.516441737649
74.5859501240081
73.6307397825474
72.6871227548821
71.787877262901
70.9861639149809
70.3205327955221
69.7541231793901
69.2526919483636
68.7475497425925
68.1925152302813
67.5999859366136
66.9884653700744
66.3626935516751
65.7871779044668
65.3043559233332
64.9466633470562
64.7459383331235
64.7508601264365
64.9500704729165
65.3245884982253
65.846961306628
66.4815524066803
67.1398818167292
67.7618995877195
68.3766120883114
69.0333898632691
69.7534470977777
70.5836470390509
71.5169911937843
72.478042057282
73.4292391559365
74.3708991505658
75.2548376442943
76.1022186499269
76.9507591364676
77.8001742911068
78.6496648323869
79.489894060316
80.3350853102817
81.1762319857495
81.9788571953783
82.7443093785453
83.449713702496
84.0745399607194
84.6113056624287
85.0613431466986
85.3984015304548
85.6001060996881
85.6928124687311
85.7352006450322
85.809576837713
86.0082529754597
86.3836218085275
86.9498154859934
87.6475633281915
88.3150185033275
88.8490462663721
89.2460851873561
89.5031787094438
89.666832274152
89.7447093153452
89.7193292157167
89.5992895152109
89.3630525717746
89.0218973586182
88.5816422312267
88.0111892117733
87.3030398646698
86.4198468937682
85.3091821161808
83.9637372605925
82.3748781344548
80.5794915437015
78.7576635019663
77.0698352563352
75.6283335799516
74.459925836781
73.4967211677362
72.6700430476831
71.97368183639
71.4413673239854
71.1385468720009
71.0948546689239
71.1784563797439
71.1917374230783
71.0851542603573
70.8070961204048
70.2754378086591
69.5380314632265
68.7354709919834
67.9460113420033
67.2339825401805
66.6624444661981
66.2476712641292
65.9550643783955
65.7996327123496
65.7622875171925
65.7910297037387
65.863117492717
66.0210078364279
66.27204919646
66.6340926377821
67.1527223491798
67.8464924280874
68.6356978810572
69.4648005331931
70.3005137257806
71.1445633655087
71.9716614571948
72.7712255091446
73.5475092751873
74.2984443433609
74.9919711529602
75.5916665883202
76.0802155646194
76.4890310664805
76.7930379419674
76.9695728855897
77.0592698644758
77.1033864413621
77.1441152673572
77.2351791455484
77.4008932190635
77.6717011156296
78.039268421405
78.5029196088935
79.0552308892821
79.6796109686153
80.3053375514199
80.5534421963742
79.6729489233565
77.4906105415574
75.0126055608289
72.9563420317768
71.073845259696
69.5834324735985
69.2304384938064
70.1916042711825
71.823187030532
73.4311234916955
74.7501256614816
75.8243213055913
76.6925488160651
77.3860510645713
77.9461453710895
78.443225324199
78.8905949602051
79.2882036512463
79.6182253749897
79.8454359104844
79.9911479308523
80.1359431912357
80.3295178133048
80.5115107221536
80.5796839871288
80.4723201259877
80.1429379352214
79.6042157983001
78.9520979966706
78.346263479064
77.9691848388805
77.929148634895
78.1555519214449
78.5262548906467
79.0013504517443
79.4753018608864
79.9381421645316
80.4107567072081
80.8103636499834
81.1530208497959
81.4636188778987
81.7743699239915
82.0731270597475
82.3205069886349
82.5545722543486
82.7736995068823
82.9875964075744
83.1668405518511
83.292491382606
83.4611507146379
83.6707681189809
83.8492534279489
83.9941668515921
84.1571489270434
84.3125403033675
84.4801214484419
84.6650347280798
84.8521502904836
85.0079470728097
85.115652836632
85.2045289676398
85.2646346192104
85.294904497844
85.2624342377876
85.1245109700136
84.947250714952
84.7486468505798
84.5455502961727
84.433190920215
84.4107769636971
84.4567659935269
84.5663400612065
84.7346164380895
84.8997994791259
85.0327821146563
85.0512178104168
84.9118842166477
84.6129152135281
84.0395627248725
83.2127021284242
82.167536497604
80.7046782055865
78.3596080188885
75.9479431626847
75.5398705531132
76.9969597624466
78.5895296770732
79.6905012300363
80.3824011645692
80.8406791696279
81.0991622388961
81.1669330441415
81.1389650896432
81.0526610297324
80.7849741803936
80.3543674925818
79.9548387984343
79.7843646168114
79.9016571934926
80.2469329444099
80.6265790771313
81.0094183926856
81.4222700523481
81.8657451684352
82.3212730149614
82.7713540719376
83.1338108174377
83.3675830942322
83.6150281786379
83.9418023520063
84.2248554988265
84.4482971994778
84.5812238097838
84.7182074839393
84.8811492273374
85.0167268530292
85.0621214197869
85.1104084263904
85.2401222884525
85.378263338122
85.4731854285774
85.6333368291845
85.7666896461838
85.6103633556915
84.9667730713774
84.1320159696504
83.7195110079887
83.9380895907458
84.4805561296298
85.0605037258328
85.6126280460049
86.0832832708939
86.4891717350944
86.8755666977736
87.2712283158917
87.6309858324668
87.9673642094204
88.4158058113055
88.9051678149436
89.3145254109456
89.6219852130981
89.9481750219569
90.2959529508421
90.60486949419
90.9661462948326
91.3129805517082
91.6945432075999
92.1360185757271
92.4963956292979
92.7530309782299
92.9750057781354
93.0109619449439
92.7069042180854
91.8976555877525
90.1901642575831
87.5672401176406
84.3643846566312
80.9360228393634
77.4060379344465
74.0100223607608
70.6116990859106
67.0530832455455
63.8897917152236
61.7848900917691
61.1232504590189
61.7237094376276
62.7027282180955
63.8431286481908
65.0767811241479
66.151703660433
67.2372337550204
68.1971067022087
69.0627297276399
69.867077840791
70.4502518070513
71.353556329759
72.4754109340488
73.4120242608228
74.1017478471405
74.8155650836297
75.3810952457512
76.0270198503567
76.5085130149422
76.7577911380509
77.1081470656892
77.5265235371203
77.6887461213752
77.8473974083174
77.9699259097748
78.3731956439384
78.8557717634358
78.6654810509308
78.7371339432722
80.1610520820361
80.3244565321442
80.367041204042
80.7619057447533
80.7228822825882
80.5856417846103
80.6682980757533
80.834968765863
81.2685769598567
81.8359041863119
