1798
3999.43349933624
650.420452594757
1
128
4
97.0808256451414
97.0599002291266
96.9945088827781
97.045564668494
97.1131339934297
97.1694676072967
97.1204749640215
97.0467960247273
97.0444637741235
97.1193414845114
97.1169926406226
96.9916975076746
97.0020114260337
97.0479837927211
97.0853681134202
97.0800610324151
97.0081366711624
97.0409102321355
97.0235786531491
97.0408022702695
97.0962068564175
97.038043357337
97.0675458945896
97.1648369920997
97.1552099005954
97.0871143633576
97.0646011651542
97.0885202911104
97.0668837645891
97.0311386672587
97.0870583942452
97.1377783019779
97.1164778589189
97.1238329428507
97.1067028629401
97.1522670526512
97.1748302461546
97.1398944392144
97.0107749023704
97.0688085422731
97.2196736618165
97.1911040240474
97.0935974233499
97.0475934068601
97.123271132793
97.1085921049747
97.0835531583767
97.1518196875952
97.200161183222
97.0940393612097
96.9544066244647
96.9435182079163
96.986026697966
97.1329358078042
97.3043747857124
97.2834848741689
97.0945928163153
97.1204024653331
97.2753557330938
97.0424102325681
96.9129512879636
97.0308305253835
97.0044799713435
97.1332560577653
97.2971536489623
97.2345606285622
97.2244250785776
97.1686641372497
96.9470084486517
97.1705355512117
97.1339838266651
96.9883436130768
97.0827662115962
97.3096884906695
97.3630910913736
97.1484506468376
96.7682571426237
96.6000860074484
97.0636233861487
97.3389899979014
97.3895492243896
97.3013082923439
97.2404832858887
97.1303403351522
96.945881152945
96.8223799977693
97.0859647367804
97.3533702538286
97.2817886296332
97.167652272344
97.2141108149879
97.0974126340664
97.0928719977844
97.0767307513986
96.7943684665772
96.8785761879564
97.0226383513204
96.8950045105053
97.0970005222549
97.3167638100664
97.4018920588121
97.1913710173729
97.0503184671831
97.1226703589954
96.9053376052432
96.9774080050553
97.3069125047789
97.1943734979114
97.1926483451419
97.262540469423
97.1980329560078
97.1031126838525
97.0461209495625
97.0466820314493
97.1108917631921
97.1851134512692
97.1112549533496
97.1150661853096
97.3112314411377
97.2625770590706
97.1821005555953
97.0512735097498
97.018173085214
97.1559323516345
97.1703335914557
97.2372064200055
97.1188343469421
96.9361143258925
96.97960198259
97.1078884128264
97.2176939892888
97.0698304808169
96.9871949252128
97.2425553709502
97.4302394900341
96.9775528684706
96.9737581571392
97.3087541706758
97.3651857004017
97.0875668140106
96.8991856031877
96.9735401519142
97.129811432145
97.3657180644423
97.3885604979345
97.2460302224678
97.1677592591504
97.0914962304726
97.1843951680875
97.2284385601207
97.2029528303759
97.286173880344
97.1259379043964
97.0074024718418
97.1865680828425
97.3340620019919
97.4203588920353
97.3261856209843
97.0193817545174
96.9564728448625
97.2180662594721
97.2835409221163
97.3000085385957
97.2293240225828
97.0549231432091
96.8866837517618
97.0199642770525
97.2545644536677
97.2231228566847
97.21905574159
97.239844544985
97.259877389712
96.9974644481031
97.1022915641585
97.2885336423512
97.0181693725869
96.9386630788181
97.1550993610725
97.2165675729295
97.1584011563115
97.0338173539456
96.9553010262617
96.945667727044
97.0356569020784
97.2352095249405
97.1149993426432
96.7768489677998
96.7469762217857
97.0922465727285
97.1637700474177
97.0326004020067
96.9946161391312
96.9951927242292
96.9889400650837
97.0155712728098
97.0029691340187
96.8804185779826
96.5650423219604
96.5576863873245
96.9106816856788
97.1723102418592
97.1065093608417
96.9260611998402
96.8707250688979
96.9409235900867
97.0052296702026
97.0764841904381
97.0506055586697
96.9304384826665
96.9795249270266
97.0990552333339
97.1127673634166
97.0846478514544
97.1077411614022
97.1673808612365
97.133814948331
97.027191946364
97.0530239091306
97.0677641137604
96.9780682744079
96.9942531008403
97.1932295721926
97.2271304508083
97.1503665969045
97.1386918007422
97.1464344813471
97.0483249261942
97.1100686840403
97.1986726796804
97.1846626223852
97.0831340461953
96.9705078982733
97.0013315008377
97.0606269896072
96.9750570544528
96.8913637300178
96.9232840802338
97.030863296729
97.0744091281102
97.1224762108305
97.1491498227543
97.1041195575374
97.030729812922
96.8577096000605
96.8648504282165
96.923146259829
97.0018963060296
97.1364937725082
97.1205576660589
97.0592986608979
97.1137793641842
97.1128304306807
97.1072847251749
97.1334654239886
97.0255875382979
97.0992257989451
97.1665070116182
97.0320743783709
97.0038568298197
97.1501830496441
97.2450275385745
97.1100365240828
97.1210933185235
97.0819357982303
97.0764652599689
97.0973284299459
97.1008972502065
97.2291603319767
97.3652273707707
97.3392680387425
97.3173485293943
97.2982157757564
97.2690104789623
97.2134241670022
97.1784121070056
97.2453985974417
97.2371404905227
97.2091577788017
97.1598910516216
97.2357185357597
97.2769683906319
97.2298404543801
97.2349594149942
97.1467489229603
97.0985961839316
97.2305658516869
97.2469896352135
97.169099793953
97.0930119845846
96.9321473410459
96.9918516696243
97.1149634133137
97.1027971200742
97.1108879906134
97.1475000042975
97.0188293634267
96.9437298396569
96.957295743934
97.0362550266563
96.998229888012
96.8551171429811
96.7848677786374
96.8261765572831
96.7786048376017
96.7719056414694
96.8183412002324
96.7682436784401
96.6597567492376
96.6973272758901
96.7625246581453
96.8058065188241
96.8489013731087
96.8394736320595
96.861019220649
96.9617248926646
97.059667836242
97.0354769152231
97.0577607182905
96.9954906777191
96.8666501041929
96.9259894317679
97.162814312216
97.2497606255605
97.0399731004458
96.8995464791493
97.0010986322661
97.1571302758623
97.1894327513717
97.1511183367776
97.1119196938239
97.1352624930381
97.1540904514286
97.2002263448806
97.2193001142381
97.175524565784
97.0290327642679
96.9323834086198
96.9906181991303
97.1145206201409
97.1191894207929
97.1381447775362
97.1786193860618
97.1997788506828
97.1779162955236
97.1268142639622
97.020942933007
96.9173366729747
97.0271031779264
97.1204786120437
97.0604729157361
97.0869510718732
97.1246584700987
97.1675705520212
97.1145491356455
97.0645182392435
97.0471914204114
97.0543650241283
97.1207071408784
97.0129127032536
96.9549160814937
97.068832873632
97.1283525190492
97.156669789989
97.1852406970165
97.1579790428721
97.14648069969
97.1361980123044
97.1103560085752
97.0788678506088
97.0426989432619
97.0395357893944
97.0523632366481
97.079487556064
97.0956352803981
96.9914458174063
96.9570726452072
97.0240288060302
97.0745339191477
97.1015291520022
97.1585480220095
97.2579400501994
97.1834473028961
97.0854314984209
97.1070124650966
97.1593393053449
97.1122745812528
97.0999762154663
97.1910922147908
97.2047423449594
97.1350358995607
97.0928279728815
97.1273457261677
97.1802872686108
97.1268226911247
97.1386295476076
97.1912842049234
97.1699155600336
97.1051261396883
97.1445331990948
97.1370500503711
97.14988205257
97.1613268787613
97.088889440357
97.108389338655
97.16952040282
97.0745933704803
97.0073087649875
97.0113805409554
96.9779634287605
97.0123563184554
97.0626944274902
97.1341630537625
97.2294157628329
97.2283907438238
97.162600156374
97.1594986126505
97.1609025285281
97.1296509847782
97.1455219948657
97.159969014261
97.1305344999664
97.0766885551879
97.1483861829809
97.210708693205
97.1419916152221
97.0870247295584
97.0787054725867
97.0743675586255
97.081895364815
97.116758192632
97.210407883785
97.2064785974774
97.2510498925971
97.2915013358223
97.1877770819593
97.0674267954858
97.0995139575827
97.1066164468181
97.0689691722547
97.0984109009391
97.13432084913
97.1822617017724
97.1097482731751
97.0407230054752
97.1223928561676
97.147255630255
97.0776112896839
97.1588114132838
97.2118187397497
97.1432390471125
97.1460159120066
97.1302620711874
97.0981173317355
97.1119054964873
97.0937359169085
97.1030993006206
97.0817436345303
97.1233765698314
97.1069493743663
97.0394079268422
97.1303792944038
97.1565735622052
97.0908597608112
97.0210265527984
97.0035239724653
96.967438378828
96.9724667330618
97.0014644584255
97.0194132246092
97.0697084973741
97.0591164780333
96.9576547965393
96.9151958676002
96.9593783989521
96.9934503953756
96.9654393805652
96.9544728956777
96.939855181001
96.8664708837518
96.7655354110724
96.806984322816
96.8346226013466
96.8415794657249
96.8704002696921
96.8579811327964
96.8222795501232
96.8437740382083
96.8364450694416
96.8248357361445
96.8072911877012
96.8075380324349
96.8362315449564
96.7640611599686
96.6895970751778
96.7519314762335
96.7974267431557
96.7213892300142
96.7044887884337
96.7701550498115
96.7974690105318
96.6959203667027
96.6537933312554
96.6902798274852
96.7222382318028
96.7794627429239
96.7271268470033
96.6404067409489
96.63063876082
96.6497796979026
96.687654875634
96.7342417122925
96.757386097202
96.804994463133
96.9125791177057
96.9274902570721
96.9426797959207
96.9862322639544
96.9132833019133
96.8478887158133
96.9535843643252
96.9945835720067
96.9539368160161
96.9322019666701
96.8960898515504
96.8763214928452
96.850869555857
96.7976182165507
96.705851029694
96.6036666866027
96.5502181085739
96.5335838181549
96.4858431827159
96.481853303249
96.4875826067627
96.4806320962125
96.4200046121672
96.3660622970904
96.3582853387349
96.3174805404906
96.3354268515369
96.3499303029062
96.2976580422372
96.2354907342099
96.1806850610517
96.1432379102906
96.0546905299246
96.0373666402373
95.9982449803842
95.8272321683116
95.65506418419
95.5195489797986
95.3839676235083
95.2845925944875
95.1938600404541
95.1075773415637
95.139623721396
95.2013205024574
95.1906802906488
95.2363887471749
95.3232389349205
95.3923141754019
95.5096273945944
95.6154818301616
95.6772273487624
95.7517149390279
95.8506373469444
95.9857560272764
96.12601562549
96.238938803025
96.3049416284617
96.3846247549178
96.4644086946657
96.5380317929704
96.5938318397965
96.6042992735142
96.5925012268414
96.6041751902056
96.6010941813037
96.5830553000793
96.4789169912265
96.4239515154751
96.4625781443508
96.4921954774727
96.4140187615151
96.2602459866728
96.1560704076876
96.1440313702245
96.1317363231514
96.1532476425377
96.2044418621116
96.2080387690562
96.2163823422418
96.2956369006397
96.3471711958712
96.3252874839639
96.284370031879
96.2836420896798
96.3180996735213
96.3831971848327
96.404420350721
96.4142455120131
96.46354582497
96.435191404581
96.4187946332438
96.4648965805218
96.499510077098
96.5460697746012
96.5771866316575
96.5601905771429
96.5319079040361
96.5585624260961
96.5968904336041
96.6050133520165
96.6558278003569
96.725793733033
96.6976144354016
96.6583954049346
96.6692110722682
96.717470560216
96.7557916222119
96.7804825413926
96.7923311789401
96.7983334924851
96.7977518847948
96.8323524894193
96.8994189507057
96.9200595315273
96.9039383042915
96.8391910355593
96.7837940708272
96.8806527288559
97.0028506735498
96.9737801003918
96.9030625585264
96.9203872087123
96.9438831894764
96.9119617670914
96.8963774480791
96.8626225048533
96.8242498785399
96.8476785975773
96.8630931563215
96.830806584742
96.8528852670111
96.8905046824068
96.9101188037672
96.9255567424725
96.9182306243838
96.8936460565081
96.9245796367879
96.9538224343234
96.9611953369824
96.9653034773751
96.9641963002094
96.9920785566568
97.0203753885121
97.0104894105975
96.9715274426092
96.9683621708411
97.0078627006585
97.019868193469
96.9966839677218
96.9802970818041
96.9851861456072
96.9987915313128
96.97640614909
96.9348826208079
96.9306476077524
96.9551676871865
96.9824686670707
97.0323651650705
97.0685457864984
97.0547782770164
97.0571595873206
97.0704569004091
97.0280523260152
96.996994928697
97.0017446169431
97.0160917006006
97.0016763025676
97.0123156107964
97.0308676962637
97.0366580325134
97.0545778006263
97.0142261256213
97.0002703827095
97.048782548789
97.067167843472
97.1065488098472
97.1074377277762
97.0681581220871
97.0845674931202
97.0936628160152
97.0881975124332
97.0775110941386
97.0673881892884
97.073278464659
97.0797094989468
97.1118720929238
97.1475274118388
97.1713003258135
97.168563789659
97.1533592240264
97.1580969748845
97.1691164065397
97.1402500480901
97.1242428075225
97.1478260126035
97.175556772784
97.1345317813061
97.0536460767591
97.04885569565
97.1027521537625
97.1404595367642
97.1120185111591
97.1035143370139
97.1294297559268
97.1076467674197
97.0690980998393
97.0945163482727
97.1128605505397
97.1175698128467
97.098799900356
97.0818484019874
97.0927820446417
97.1261522374706
97.1452185348221
97.1449903719443
97.1135919682669
97.0819946822824
97.1043642212658
97.1473499047688
97.1594637248629
97.1329677485394
97.0830287226954
97.0953359199061
97.1212687425102
97.1010841558605
97.1346708752507
97.1961823795393
97.2393105671767
97.212754632199
97.1692964500251
97.1694197595386
97.2211524816649
97.2364878379492
97.2128686525559
97.197548643842
97.1550356894919
97.1476819468771
97.1735301889778
97.2084061045526
97.2165792751806
97.2384917890609
97.2236517128038
97.2051070030385
97.2491636095814
97.2282077184248
97.2119113092415
97.2259110540889
97.2268582158883
97.237728990822
97.2515763142524
97.3052362106378
97.3577144745289
97.3378401824577
97.2667253387807
97.2492976065568
97.28727321349
97.2547534149051
97.2473947373589
97.3112099793107
97.3447750240466
97.3622625835941
97.4286762309054
97.4539152740636
97.3628500093644
97.2924168429193
97.3640298059869
97.3736431544617
97.2434950011446
97.2197150688351
97.3077985098908
97.3260320327065
97.3198236070559
97.3271238073251
97.3041316426145
97.3236222361929
97.3361147247755
97.2989843818048
97.3234717315076
97.3393158162684
97.3190066608059
97.3532475243246
97.3794068133181
97.3589248046199
97.3357560190562
97.2999214712035
97.3629547403947
97.525193629922
97.5616463800845
97.4578663013154
97.4098109809087
97.3703512357897
97.3173018548568
97.3457557706316
97.3667167526123
97.3369216451513
97.2935777926444
97.3765032223998
97.4501847164288
97.4595583114645
97.5106631657052
97.5084776426883
97.4552586607292
97.3904182327043
97.3725074068332
97.4289399781483
97.4929339354974
97.4696647321924
97.3734161081811
97.3759274238418
97.4561069674754
97.5146007018301
97.5171502951923
97.465839411478
97.4548962962537
97.4951064491697
97.5042411014197
97.4904633188415
97.505430984796
97.4839734792278
97.4677908894446
97.4229971515011
97.3938720197825
97.4277465569563
97.4645440794984
97.4505917024714
97.4408685720334
97.4909346819043
97.5429227837108
97.5158926461163
97.4465910134204
97.4057073917978
97.4104804209283
97.4117940514166
97.413348256111
97.4107598693642
97.425258635925
97.4538961864381
97.4610916708705
97.4766912680196
97.4374025694375
97.3442857043926
97.3074174688987
97.3193840601894
97.3146759734074
97.3025400904275
97.3569489536345
97.383784441159
97.3497178463839
97.3144253160167
97.3318505606624
97.3682730476301
97.3475748634933
97.3033288648269
97.2440686255645
97.2503380827218
97.3038010047876
97.3457642802233
97.3205956363267
97.2996372263162
97.3475578057347
97.3131980766006
97.2957784126834
97.428697566368
97.4617963947614
97.4427203851795
97.4593259745624
97.425514298388
97.4413293878203
97.4853686955433
97.4470280942279
97.4357452694694
97.4680027944673
97.4668728759402
97.4352700892199
97.3782033503276
97.3848864643817
97.4639697337964
97.4514916703384
97.378679290646
97.3204280872695
97.3410465593204
97.4248722588278
97.4608357887099
97.4754412921976
97.4664999728823
97.3577826403524
97.2393166526483
97.2671965717211
97.3896791129135
97.4447807624687
97.4529971000276
97.4956574666827
97.4978752090484
97.4672879164684
97.4691475185347
97.4892617853455
97.4721152835962
97.4756781066535
97.4938553800586
97.5094124695312
97.5339493376117
97.5114847320609
97.5448710371479
97.5376032226965
97.4419101549106
97.4028879313339
97.4253110372493
97.5013731396427
97.5457375863021
97.5757511420849
97.632113224822
97.6147411184844
97.561588093001
97.6415579830536
97.7518736162371
97.6703037867407
97.5739206610884
97.7004608521823
97.8997575515249
98.002366830769
97.8546783712686
97.681733911552
97.7026370437766
97.7593975030137
97.849072718431
97.9986691907116
98.0372734398742
97.8927870492828
97.8935481061959
97.863656186878
97.8488513951691
97.9282455875434
98.0570669050869
98.1425793274604
98.022648702997
97.9253199481257
97.8889063065616
98.0637122280813
98.3351662610412
98.2752854885925
98.1650795281034
98.1778666347234
98.1604410691197
98.1178772519657
98.2372635025668
98.3772925941548
98.2918052981839
98.2721518697897
98.2202503156415
98.1601899785965
98.3906335352956
98.566567155074
98.4780069905379
98.4932236577478
98.6035569639729
98.5855936969489
98.4572526729648
98.5045742121194
98.728260290226
98.5815783068022
98.3461281233433
98.4119398925811
98.5616651947219
98.7171090394874
98.7777604177456
98.7013759320727
98.757736974241
99.072168257623
99.2221395052038
98.9698193984262
98.5943477921993
98.6447365989328
98.9581284450915
99.1916696285973
99.4936633070793
99.3285143282995
98.9845126846365
98.7031725732019
98.3425566725587
98.2414062353175
98.3443827657435
98.3872088563074
98.4162251325828
98.4486277389861
98.5425958655416
98.5392320232679
98.3693790093346
98.2599053391502
98.3616621537668
98.5432830245887
98.3332372788449
98.1188441157164
98.0786163455708
97.880772911924
97.8498382184099
97.8950392645522
97.8083532140382
97.7738448511709
97.775052474389
97.8196981919996
97.9681901903074
97.9882054495556
97.9334632935626
97.9974158223504
98.0439709278568
97.9471344934997
97.9089081896031
97.9400976649685
97.9182219010761
97.9791860803806
97.9865574619541
97.8765067595103
97.9130816378148
97.9673806528582
97.9090737604777
97.8749984783767
97.9939944940211
98.0571054373276
97.9970017159205
98.0336962612616
98.0427723649634
98.0337473877309
98.2519505421682
98.3525140273337
98.2091877708147
98.2196692957846
98.3288138777501
98.3431305389071
98.3977593087436
98.3923652308452
98.3502690316423
98.4750529298017
98.6816206848809
98.8681498117269
98.8729972436931
98.9413515602875
99.1669720728728
99.1249641946362
98.9144160375296
98.7040242756674
98.8653201971032
99.1002875831053
98.7987820317039
98.4876142830972
98.6093980447866
98.7617520594261
99.0832498388544
99.3682642195065
98.9450136060394
98.6184314081571
98.7096243925939
98.6077575583607
98.6959992405609
98.9285106530953
98.83483056595
98.5465774212554
98.5201518311719
98.7593650473501
98.894202554776
98.9349342259528
99.133412604347
99.1071804727005
98.7762096962959
98.6819695391535
98.740439113778
98.7356485139632
98.9221502547918
99.0135168280392
98.6770660810383
98.423375827086
98.5164063842883
98.6665705766812
98.9552297402035
99.0449723172717
98.9386348801143
98.7909274934863
98.6650601461071
98.5073611699197
98.4715934416966
98.4910227186314
98.3539827543231
98.2016608088911
98.2182772718796
98.2554161862885
98.2107349337419
98.1844621492072
98.3784413811087
98.5070985207491
98.2969649436987
98.0971877421398
98.1817368440345
98.249234752686
98.078376471751
97.9643552915322
98.0811417360787
98.1768554248668
98.2344492882897
98.266645154113
98.2922105999899
98.3670516731186
98.4694830357407
98.4045824923968
98.2805834716732
98.2673303887771
98.3262787410023
98.3027698493763
98.3213451590927
98.3604335029122
98.2779174032659
98.2984017465681
98.4424411821592
98.4638577024151
98.4100060274184
98.3782350130419
98.3439428293089
98.3545829838371
98.425642124125
98.4435968858257
98.4555121445984
98.4671027555057
98.4866862119569
98.4952779668974
98.457150782202
98.3744737462573
98.4096992383082
98.4743696171054
98.4743354196709
98.492134188717
98.4787551005607
98.3844214874881
98.3896697842695
98.4796016004488
98.4662472612586
98.3950059775941
98.3937932743127
98.4293558579885
98.4653098165631
98.4822992143303
98.4697993593088
98.4437590271609
98.4214312917212
98.3396205739967
98.3182053499864
98.3065241517331
98.2978111999605
98.2773880562648
98.2227672043679
98.1773786380823
98.1779501773441
98.1704040292151
98.1434061838114
98.0793041292316
98.1011272792366
98.1203542322162
98.0547202558696
98.0171012865176
98.0428929227259
98.0614818903366
98.1071964515676
98.1432074672841
98.0965245781872
98.057517013407
98.0717744717313
98.0973550882076
98.1169941371226
98.1154963493151
98.0950631425846
98.1357320310198
98.2212094440399
98.1967367299522
98.1415219061328
98.1414140342444
98.1721628910263
98.1644712618221
98.1805342203504
98.1944772907212
98.1950982711937
98.2220180831369
98.2408339478129
98.2565183334494
98.2225377442987
98.1833191365345
98.1439516723812
98.1929139186681
98.169337164808
98.1118030763939
98.0757411144667
98.0933022846182
98.1007374511824
98.0291305598068
97.8811347862471
97.7880535296262
97.7195595242199
97.5044730387042
97.1662030735631
96.6325920829647
95.9101677258061
94.9735322565993
93.9198913512435
92.6453668501246
90.9731045110044
89.8260210501747
88.8329554409752
87.1423044712922
85.5351712750532
84.0691402910539
82.6817683804215
81.4160986580932
80.1293401976059
78.740106835608
77.6339467015245
76.7185965163362
75.5765734573658
74.3659889644844
73.5528619187694
73.2622411394187
73.3486458042583
73.9047795791409
74.9894477637633
75.5137634305375
76.3495429525241
78.5184255880168
79.4968367939201
80.882074659243
82.3893887609316
82.883687889393
83.4595706465583
84.0601332428764
84.0562992169034
84.5614869056495
86.1273219890387
86.6204158514088
86.7092499468608
86.7068884150021
87.3578762019947
88.2054387887257
88.2382652186779
88.6649516744106
89.6881834712785
89.9704919913355
89.8812898487545
90.3954288003647
91.1097826402772
91.3508660647788
91.1205254867693
90.419266229008
91.5602747155447
93.0701058574445
92.646361684134
92.1654866325254
92.9182401907004
93.3765138182023
93.3107655543401
93.1530355637822
92.9072160176812
92.9934383337037
93.8960775107176
94.1893695790545
93.9417591024641
93.7922482696185
93.9557787367728
94.0572610189988
94.2288124870195
94.5059127828901
94.3330047162066
94.0150647697736
94.2378275043052
94.3746598122414
94.2084003240184
94.1621454937947
94.3233683834837
94.5605227807038
94.7125354681239
94.8827055664508
95.0749232952205
95.2038876267906
95.2609163227263
95.369796071764
95.5121191493178
95.5744722903818
95.5890046419534
95.5814933969404
95.5193538872261
95.3339044131291
94.9975972475136
94.5486507177937
94.0278183283562
93.9688447681805
94.7107447857061
94.944982574438
94.8744372459442
95.2635545193653
95.7329279484995
95.8513266836597
95.8969783548765
95.6281727988413
95.1941463119244
96.090790681994
96.5295744132271
96.3795256509732
96.3369622990564
96.3413385522737
96.4801131205795
96.4916629720505
96.3680788706444
96.2840101118325
96.2528952135151
96.7157750347465
96.9426785465924
96.6935629062142
96.5132411217266
96.7167627070133
96.6871411406762
96.4993731932646
96.4511657740874
96.4842449463927
96.4375978129257
96.601756012499
96.7400987307835
96.7479528932909
96.9039140557893
96.879605469863
96.5748622718205
96.0094020623163
94.961691082572
93.9693951347792
93.9176969356575
94.2512573348052
94.835853452539
95.5171612881789
96.2624454553631
96.7780810749031
96.8758769101418
96.7901978585166
96.8522134789246
96.8903951157584
96.7795856116809
96.5630140010501
96.3494104609702
96.1542603446704
95.8504752042224
95.4365821252989
94.9911364227903
94.6467159081838
94.6904796287697
94.7847673471864
94.8879212589888
95.091059467141
95.2570855783443
95.066980882604
94.6940615692199
94.565596288522
94.770902247505
94.6663348093368
94.5407361889399
94.5514573549913
94.6688657210946
94.8935851046529
94.9897753910418
95.024795996171
95.0549671810167
95.0461876676314
95.2139812587437
95.6795889805685
95.9126782115934
96.0482788807213
96.3246177137384
96.6069782381411
96.7294288104711
96.7872457143282
96.8035098566629
96.6450683586767
96.1461337390592
95.0970548638168
93.4474552165269
91.3615150325598
89.332730692821
88.0922445356129
87.8829375492661
88.8189873269911
90.2415944230472
91.2868709741474
92.169102479114
93.0309884455796
93.6072612666674
94.1316692382377
94.4636434772084
94.496951036645
94.4547350712309
94.5550597915836
94.6606633549769
94.6601012403803
94.7010708619085
94.7422026017023
94.6903852488538
94.5460803089831
94.4434368517243
94.3488535022443
94.2807357346787
94.4224898911026
94.708670067594
95.03936412768
95.4595201527875
95.8015337103372
95.9669989010475
96.0135381811564
95.9946240011977
95.8662786820587
95.5153536736723
94.788191578414
93.5139717210201
91.6704129737084
89.5139138508397
87.5931130735807
86.5851000597181
86.9399037674562
88.2952873716947
90.1432270629564
92.0128781552426
93.5484015781798
94.5977520469705
95.2247327102971
95.5478686366975
95.6405354418573
95.5926928308445
95.4880472665598
95.323356636997
95.1108355735808
94.8902811256405
94.641897733987
94.3302501652206
93.9905653168979
93.6757737579536
93.3635149854927
93.0259544621864
92.5974141605594
92.0452902310982
91.3941804758916
90.6617487330251
89.9114485614829
89.1839075978125
88.4792077979179
87.7984437976586
87.1003919780125
86.3723327460221
85.6636192139434
84.9498261190853
84.2231997665614
83.5014226823265
82.7987826529247
82.1393346558398
81.4656955716701
80.726398819762
79.9636576135044
79.1994585853399
78.4666663713194
77.8125655685737
77.2668263517944
76.8039260306204
76.4163450521867
76.0549404385486
75.6645861262345
75.2228262309504
74.738577502587
74.22817598601
73.7391719665968
73.3162638937644
72.9900980163583
72.7786712574193
72.7183517119702
72.8222572432775
73.0711711397096
73.4295400356974
73.8853023134982
74.3987891001069
74.9172463236177
75.4204754424253
75.9237870244218
76.4815791945403
77.1444745837182
77.8870368194884
78.6706287374951
79.457270522138
80.2249896363916
80.9508864877574
81.6439091309469
82.3337342247023
83.0392281196741
83.7443505399734
84.4424185768042
85.1381599819432
85.8245704879371
86.4892596082313
87.1339099968123
87.7343621448208
88.2525221765888
88.7055662561778
89.1132264199817
89.420580568379
89.5905759658912
89.6519308259493
89.6606647255771
89.6705530178845
89.7715549006108
90.0413216887892
90.4962152272388
91.0736191253218
91.6236530482473
92.034756923945
92.3479364020469
92.557488630679
92.6785315936694
92.7408269975632
92.7172677615891
92.5933535523838
92.3879925908305
92.1140097429501
91.7559366447246
91.316150469679
90.7996394494664
90.1480039829728
89.3187387797352
88.3170501552812
87.1329882406609
85.7549414121077
84.3064959640115
82.945925036729
81.7629177448768
80.7783320547757
79.9652711076959
79.2844644952085
78.7066942364015
78.2326825740456
77.941786081982
77.8822175071392
77.9587151163552
78.0112707310996
77.9686135076563
77.792313613606
77.4214247771841
76.8683705878555
76.2291688428588
75.5873533370935
75.0064366996657
74.5122913687192
74.1452726354382
73.8894481572278
73.7536423634169
73.7266268616015
73.7484942222999
73.7957056095227
73.9135352886557
74.1041723843393
74.3720369494771
74.7463591470382
75.2550754494687
75.8519239047424
76.5016607357083
77.1879596337882
77.8911654954008
78.5699537018417
79.2046474054646
79.8413801622572
80.4701106029442
81.0437544044237
81.5534191966257
81.9856158236475
82.3491496780574
82.6188267242529
82.759273741291
82.8093912284728
82.8294094769072
82.8479732823638
82.8934052721738
82.9865170582312
83.1552992286433
83.4185292525022
83.7905772890148
84.2579929672732
84.8005627134796
85.4111887928923
85.8249473951253
85.3818952169571
83.7432991796921
81.658219088219
79.9191073751133
78.3624921862829
76.9935053859115
76.4607035309299
77.0458541667942
78.3006161890097
79.6321374929866
80.7526392244159
81.6648376221601
82.3929353688588
82.9838559081484
83.4905949057357
83.9300300436923
84.3232565055224
84.6772439502021
84.9538322968229
85.1274311274184
85.2261584099405
85.3555628990625
85.520670601629
85.676667689796
85.7615963186259
85.6998075639705
85.4626094482457
85.0527810515942
84.5009621687072
83.9533496096376
83.6032161041159
83.5250144751819
83.6963707417834
84.0255630168296
84.4213299918965
84.8067525541167
85.1764324482782
85.5469340096517
85.8838881573385
86.1801868061648
86.4527214194801
86.7116467917403
86.9273793311165
87.1253626886021
87.3373057697938
87.5208523548423
87.6815006481077
87.8127361658721
87.8966884381613
88.011530300423
88.1649299815182
88.2953060325945
88.419942215113
88.5538758382439
88.6751900543076
88.8293402283522
88.9809063424204
89.0998232112685
89.2289469123779
89.3314808891789
89.3791716841525
89.424294839843
89.4488467459134
89.4014005686357
89.3038347214904
89.1521989580106
88.9477958209711
88.7556301049023
88.6121205362197
88.5594346017933
88.5881459635371
88.6628343346226
88.8178623191416
88.9946428177029
89.1071450149446
89.1102915072744
89.0192689649395
88.7988312483113
88.3911180200366
87.8078823470656
87.017609127971
85.8559857199581
83.9539521154626
81.8830806775008
81.3884749862032
82.5431388166385
83.8981142709622
84.7922192927653
85.346979697336
85.7454613574889
85.9757887515293
86.0675127879079
86.079612387814
86.0179631567629
85.8070551850823
85.45222128177
85.1410154418134
84.986731208912
85.0493298507941
85.2635789344599
85.543047564079
85.8378301338108
86.1105852247608
86.4290210097099
86.8201639793046
87.1916562912484
87.5360039946235
87.7796656992651
87.9547988194544
88.1859431800932
88.4337327717361
88.6586768863453
88.8144576861243
88.8851284855604
88.9732216087698
89.0809275128402
89.1166048540802
89.1615849862118
89.2748998160562
89.3967887945589
89.4388668495531
89.4844008196346
89.6297457422257
89.5961752741495
89.0612990350367
88.3283276739125
88.0027854362813
88.2246721608233
88.648797130936
89.1128404405562
89.6006349338902
89.959432657611
90.2887926645555
90.6310403321371
90.9256708929167
91.182720722598
91.4633303762249
91.7486546224532
91.9717829261048
92.2372635812347
92.561739985255
92.8847206105728
93.1532990244462
93.3120328480956
93.6350818810307
93.9917460456549
94.2048249725419
94.4112606381808
94.7022021274775
94.9349657005949
95.0729237259013
95.1183874403204
94.9906179524681
94.396680014382
93.0796540368611
91.0215251367909
88.4507371960239
85.7784979075555
83.1313187080162
80.4384989215538
77.6173155239667
74.774102573984
72.3589168345664
70.7051564783861
70.124712203798
70.5085851452393
71.2488968277676
72.159304357928
73.2406465569512
74.1829356786375
74.9498701081883
75.6241415969977
76.313518258045
77.1357747333963
77.8897601549982
78.550317313145
79.1814498908964
79.9281753741938
80.6957194568551
81.2898947085407
81.7736196506359
82.2669087139797
82.5226331652847
82.7752695462711
83.232683346327
83.5776832878405
83.5016629992968
83.6751631097823
84.1012170466925
84.2397984990628
84.3099586359035
84.2624919244843
84.2549363519973
85.0014818076673
85.2625128761109
85.561448665737
86.0723200772062
86.2050411052876
86.1475345174764
86.4161930072065
86.3513188391773
86.4465949775332
86.8474751843736
