1798
3999.43349933624
650.420452594757
1
128
4
96.2111395484708
96.2451173819562
96.2415856113358
96.1897361944804
96.1355944525544
96.1305815769839
96.1619564462201
96.1999399022495
96.2034855646826
96.2459173130252
96.2180876674972
96.1057248664408
96.1416445054611
96.1774546464535
96.2524428117533
96.3519896269304
96.3371574072966
96.2381618737018
96.2072700825446
96.2538199578287
96.2248924264713
96.1843548440927
96.2197176597513
96.3132943258275
96.2884689176939
96.2282785416629
96.1825259503904
96.2288677988259
96.1747635448584
96.1377839278781
96.2181255051629
96.2290931009177
96.2644309578893
96.3027120192291
96.2080276376166
96.2030210490293
96.224975107996
96.1680942345514
96.0474555146636
96.1616170721995
96.2045425368021
96.1972075218703
96.1986488562307
96.1633924821463
96.1977318121195
96.166916075583
96.1913174169069
96.2293729896858
96.2739740485404
96.2516548901935
96.2100764244234
96.1047986731401
96.0139146387659
96.1673781542359
96.282122712544
96.2967903185267
96.1530082464419
96.2033897815368
96.3435976492665
96.0910163073427
96.1242458652967
96.2473560119508
96.0023506868719
96.0898718480897
96.2836327018071
96.1799930461795
96.2058706572385
96.2213970921584
95.9966701447106
96.2904434913779
96.2581381432131
96.2436572479705
96.2854255129807
96.3096685204347
96.3101216395211
96.2873338567935
96.0737720749009
95.8804689878141
96.1622386686888
96.1753731323632
96.2228406039771
96.3187131993029
96.3368490150231
96.163506010883
96.019996002816
96.0453959224816
96.2419544065061
96.4047600723518
96.3300755642475
96.2797983523972
96.2608955291831
96.1539600082194
96.2374821487665
96.2071555290609
95.9796952094886
96.1567080266938
96.1645543612668
96.0454723333392
96.288560866598
96.3142782939314
96.4134160288178
96.17043716648
96.0291350454937
96.1936916297308
95.9668333891501
96.1189408666778
96.3850212329852
96.1033057324901
96.1806642142689
96.2489761647481
96.1854404988383
96.1600438933429
96.158260052669
96.1435745129274
96.2144006300434
96.2488479638383
96.1055301440312
96.1457019825076
96.2685024596705
96.2108337563524
96.2459284247361
96.0722662180061
96.0559086312722
96.1940160299683
96.079866336895
96.2025169262182
96.1413641910702
96.0486587010949
96.2087039313459
96.3177809468823
96.2590779225744
96.0874001945454
96.0460120686757
96.2068707167709
96.4273263149019
96.0251188397693
96.1175473209906
96.2384056752945
96.4078535119943
96.2625179414298
96.0474545554258
96.0230633806191
95.963761322996
96.2393598434026
96.3216581312484
96.243560851969
96.245057013189
96.1167414612623
96.1628141321622
96.2367047843019
96.2531831117681
96.3283889071611
96.1841327102589
96.0289716726283
96.2055177086064
96.3250179457914
96.3399716568101
96.2319453912923
95.9929503639938
96.0622429775651
96.2872084703803
96.2488522007498
96.2116390306858
96.162784574095
96.1013299079606
95.8944888078391
96.0129111300652
96.2955248189548
96.2526019874277
96.2571368454269
96.3180113387682
96.3053584799126
95.9495559309497
96.1629696825003
96.1882567976051
95.8499928178573
96.0075179022169
96.1391157718636
96.1038358583932
96.1019567836176
96.0318429578199
95.9578052495998
95.9572180677044
96.0590605623739
96.2523673485444
96.0821977842045
95.8504254165407
95.7630766320413
95.892018776458
96.0067417167144
96.0517374614621
96.059233072675
96.0259703882895
96.0157991514782
95.9297629250195
95.9246367194095
95.9890419754048
95.8076994222405
95.7441073557766
95.8704283266929
96.0321469686137
96.0198703527449
95.8679847709238
95.7440054709855
95.8590533657217
95.9364280537887
96.0548037837861
96.0453337900301
95.9329388450376
95.9196034495939
95.9840794770571
96.109331228594
96.0643082739861
96.0544867750476
96.1686367200489
96.1509874820696
96.1370678405151
96.1494000832964
96.088070451692
96.0315040655898
96.012653414497
96.1312420623943
96.1973512814913
96.137336656661
96.163477681084
96.2101089777548
96.1882212502904
96.210087716812
96.3069780916718
96.2773106063572
96.0965663271032
96.0090743162173
96.0509668800008
96.1445131279498
96.0848400193548
95.8915160555021
95.9366186850423
96.0030010667261
95.9422743118372
95.9521399669987
96.1247730549266
96.1727381884149
96.1205722089387
96.0997546793015
96.1463712274025
96.0258261332665
95.964603500137
96.0866422153337
96.1104567325294
96.0271312427465
96.1093356962371
96.258380721848
96.199390328581
95.9937088691607
95.9118828525688
96.0823396465441
96.2424380989437
96.2011173218194
96.1865202581272
96.1081946853254
96.0846783100464
96.0938255738388
96.2425459648055
96.2802797361995
96.2960476982777
96.2173939420423
96.1864126470898
96.3259429116242
96.4067325548933
96.3748856261699
96.2815182238423
96.20591729625
96.3606363108069
96.3611421928508
96.2549499252936
96.3287060232237
96.3961832380625
96.3986851607673
96.4399143631515
96.3743976377782
96.2133025730914
96.2638953808894
96.3384366715354
96.2186903521653
96.1545380978759
96.3157260240713
96.3148956803556
96.1607410163517
96.1250476936482
96.1054500548852
96.1169159937678
96.0905145813418
96.1722256067141
96.2413380441129
96.1605078796962
96.0622538768817
96.0583224992008
95.9837820264123
95.9500164173196
95.922967129379
95.7830066846131
95.7671798328524
95.8403576360496
95.7878880887957
95.8133058687822
95.8639188135858
95.847375892788
95.7800576125516
95.8034136237581
95.8421281791719
95.8640596157056
95.8033864940709
95.8148547089703
95.8249560570795
95.9066809777363
96.0479341588486
96.0803557927899
96.0727889494293
96.0633135546553
96.048370348415
96.0499932775393
96.1451809958588
96.1871086857234
96.0801747500892
96.0403248877663
96.1616586865243
96.3145247240104
96.3082733579495
96.1965622425086
96.1976305863513
96.2422470503393
96.2997656286842
96.280806208443
96.223159785106
96.2269605746997
96.1214703236006
96.0504878661456
96.0878939830051
96.1376407065305
96.2872629789913
96.3407577364008
96.2447014848471
96.2652172217886
96.2527862455565
96.17132252648
96.0803108854719
96.0370301166535
96.0897090463621
96.1745766611624
96.2082877339632
96.208686879708
96.1465158043564
96.1794519189321
96.1853184905758
96.1313920568943
96.1095374891488
96.0770619208654
96.1859030956098
96.2391431098772
96.2072073870864
96.2414263794032
96.3130798763929
96.3642812416767
96.3221066714265
96.1710609659354
96.1282261399865
96.1200085008755
96.1450080855887
96.1392555014651
96.1308168676079
96.2319685766605
96.2343434080606
96.1274578512359
96.1542124260026
96.1735497268726
96.0936675556058
96.1407579902761
96.212546813964
96.2138020592568
96.2439967769302
96.2796381679035
96.2399219432372
96.2058447465037
96.1699986590214
96.2150294815759
96.2280447770181
96.2188515911736
96.24655547792
96.2078993546751
96.1908357196063
96.2148767700475
96.2602962208613
96.2830148811547
96.1915969991673
96.1766570631762
96.2368185924424
96.2388148814127
96.2251995163501
96.2581838787616
96.2590965586821
96.1947045575645
96.06287519521
96.1040524952804
96.2505981470324
96.2555305676789
96.0918594080401
96.0557909535389
96.0729368065535
96.1191884648778
96.1974950335616
96.1899897579073
96.2191463837079
96.2236183183649
96.2032923146888
96.1712923808997
96.1989955153611
96.2299487017653
96.1915129298335
96.2072907454962
96.1971886977052
96.1238849333023
96.0572619734279
96.1053909219554
96.1706305598579
96.1925871455619
96.1695340319113
96.1666138289971
96.1293316571036
96.1456369477255
96.1446392038668
96.175719153081
96.2237659355056
96.2427458154986
96.2523741690165
96.2545291865716
96.1637394099721
96.1562213675216
96.1934505110095
96.1617489975991
96.0763199484592
96.0443913805819
96.1207796586528
96.1424250563543
96.0973504735676
96.1798677746422
96.1810532328673
96.0792002372067
96.0913908205411
96.1109531209983
96.052376157796
96.0371937251343
96.0349276158547
96.0246761906999
96.050498743024
96.0744944309622
96.1184742680325
96.081846171399
96.0479715874735
96.0468147753708
96.0498183623533
96.0948470697502
96.0486004539598
96.0305852282016
95.9911645724563
95.9282496290768
95.9242514393181
95.9045410233355
95.9125630897425
95.929337275853
95.9216783592745
95.9180107227254
95.905613916558
95.8612442707508
95.8381094631977
95.8623507717537
95.8746340736971
95.8542194416671
95.8119768672219
95.7627307290374
95.7079222521389
95.7533379809705
95.7538229762513
95.7142124537529
95.6919833208224
95.7485921991396
95.7370878033678
95.7060855843118
95.7343789643584
95.774198155725
95.7468955759169
95.6878909868945
95.6513879932229
95.6276240413575
95.5798596261765
95.5401295965118
95.5361365855968
95.588166877938
95.5787073096647
95.5688795578034
95.5891030855426
95.5547720918032
95.490277529175
95.5096688224282
95.5671964372316
95.5853109524484
95.6018469827268
95.5582832128063
95.4439898274679
95.4520893851439
95.5298000233178
95.5844486033292
95.6865773575776
95.7785752668563
95.7877456565652
95.7449154478411
95.7647143093931
95.8875129173072
95.8978623651311
95.8179484142547
95.7935003424009
95.8183990391386
95.7926241989519
95.6782829243433
95.630021150305
95.6680365307952
95.6705312270877
95.6185164567778
95.4778624015068
95.3647591278683
95.3519781041145
95.3641418105521
95.2908458208787
95.2247903550731
95.2494141407031
95.246390612412
95.1574586448571
95.1211128406356
95.1289291502556
95.123264203065
95.1407361175191
95.0695113810812
94.935191694881
94.8971982122445
94.8529781370413
94.7955805656538
94.7101766831975
94.6338700473148
94.5633225590908
94.3894335749616
94.2043973602523
94.0525466691125
93.9102103226669
93.8506979743412
93.8197729794363
93.7654602373104
93.7964435129325
93.9010247250221
93.9395285665741
94.0308038773733
94.1423034145954
94.1912992033037
94.2807918129964
94.3893218142336
94.5227387499488
94.6373458028097
94.7384535255396
94.8516036469221
95.0068522907707
95.1740522960224
95.3025262769397
95.4107130558217
95.4752780452276
95.5478882826936
95.6424053308301
95.7169811003757
95.7224050957598
95.7170504636331
95.6475910528531
95.6091810746835
95.5335770736243
95.4728984175842
95.4261756618711
95.3706876939123
95.2722651108467
95.1083665436458
94.9652566817307
94.9312734965277
94.9444890116101
94.9748722525634
95.0449794974562
95.1053130828852
95.1078537547382
95.0893193663999
95.1117233032857
95.1490482590481
95.1260461157689
95.1117731870568
95.0968522288662
95.1017053830002
95.1472981860349
95.2067488662186
95.2052063414133
95.152808987614
95.2063190720913
95.3249984585269
95.3368948987151
95.3435428577756
95.3595550901103
95.3334356935864
95.3385440654384
95.3931847335298
95.4305293400388
95.4705425990998
95.5380365793115
95.6121971818859
95.5981759199113
95.5586370821681
95.5804731526164
95.6049295779171
95.6118853056819
95.6041030126356
95.5901127424439
95.5916488672194
95.5988761992298
95.6388979764466
95.6400974445387
95.6516521310503
95.7010991156595
95.6951320213281
95.6584520078057
95.6682082736841
95.6782270363673
95.639176596194
95.5963975522529
95.6254275311187
95.6543590237357
95.6377012567146
95.6028036023874
95.5828576956104
95.5744753848406
95.5704606405175
95.5542835095552
95.5089949083474
95.5337247634982
95.5683137140794
95.5972156140941
95.633618318329
95.6282534265884
95.607823444931
95.6716819789726
95.7368910095353
95.7360113425775
95.709332090594
95.670880675571
95.6851865059044
95.7045925904599
95.6904540129017
95.6780431135308
95.682677741229
95.6919307897536
95.6904291054242
95.688569947637
95.7070971266013
95.7145338444402
95.7256508368258
95.7210099781121
95.7012155889813
95.6688013470313
95.6574326065074
95.6822265138678
95.7239777061565
95.7406256172244
95.7339388450304
95.7226899324824
95.7262213309171
95.6958597598351
95.6691742458475
95.6679588427917
95.6901814196106
95.7303165447283
95.7615600839573
95.7330589321085
95.7351833054422
95.7654599566768
95.7511726904602
95.7416125361109
95.7856397191877
95.7807029803451
95.7767910008695
95.7848474012256
95.7933905823526
95.8100045581436
95.8142956012964
95.7948103874411
95.792733327655
95.8091267626111
95.8139787554145
95.8103759492099
95.8179783935298
95.8377247387254
95.8601946327159
95.8210508534527
95.7768353125964
95.798467059206
95.8062501043036
95.8078421779383
95.8246322648671
95.8417009849187
95.8461598396429
95.8118277823279
95.774225960988
95.7719316430211
95.799273008282
95.8372021329274
95.8088852839931
95.7780679075546
95.7615017596024
95.7401443052694
95.7410893226539
95.7322810700581
95.7112618028853
95.7068402801265
95.6972927502653
95.6852853906953
95.6979207512825
95.7401017600837
95.7883521465069
95.7487518578289
95.6839727766873
95.7024318362436
95.7296690437373
95.7444587170182
95.7762566853227
95.7877736188752
95.729397990445
95.7241375175345
95.7591630109256
95.746376183709
95.7517697250273
95.7610804982975
95.7936797017084
95.8225366174082
95.7749266422657
95.7690302024555
95.8391436496794
95.8387250043474
95.833211865758
95.8717086773807
95.8352044510845
95.7646482231221
95.7855901932672
95.8599923060046
95.9309331206963
95.9192149312233
95.8597090716046
95.8238021649564
95.8098730602907
95.8093593731102
95.8661304131161
95.9020340887225
95.8957210809921
95.9267279176436
95.9656505498035
95.9270286783705
95.8981067656355
95.9449562029073
95.958320230257
95.9578859597568
95.9291815937235
95.8712231949511
95.8822954959868
95.9065627622374
95.9456792533269
95.9833781103265
96.0165443509396
96.0501290853075
96.0339390126349
95.9914533601977
95.947371481999
95.9406065580025
95.9428542200147
95.9102030430681
95.9593374934327
96.0135896157026
95.9996556373514
95.9353467550504
95.8517226839675
95.9197325461872
95.9755811741245
95.9331097426254
95.9454635385613
95.9310210929856
95.9624498889927
96.0035074296143
96.0206079836167
95.9815048699658
95.9218934501449
95.9120651752775
95.986235713462
96.119025521631
96.1111208474491
96.0118660662456
95.9992737044547
95.9666870227386
95.9197519433956
95.9860327062261
96.0191896468894
95.9549405160656
95.9720763349943
96.0748307875251
96.0672308083285
96.0303692423909
96.1070722054855
96.1072132881082
96.0441645438156
96.0511245229432
96.0639575155185
96.0727821980195
96.0803546664857
96.0216859597732
95.957445782586
95.9866998781314
96.0934775186757
96.1648600262051
96.1283986624966
96.0771796073391
96.0540263326119
96.0765722243642
96.0925378531306
96.0583398813478
96.1013252980582
96.119164043554
96.0914496544969
96.0576007448521
96.0072499711415
96.0120816294892
96.0969695530903
96.1251299174291
96.044311494872
96.0302615453558
96.0603439637857
96.1081325842795
96.1526842526766
96.1170472374949
96.1162836102465
96.0756643511168
95.9893408790483
95.9433538144504
95.962211135974
96.0403118471481
96.0658237324914
96.0350364245556
96.0355732766024
95.982425016014
95.9437189620209
95.9790886568679
95.9682616166763
95.9710191392811
96.0042044592909
95.9802164942658
95.9669121617213
95.981290320943
96.0321020857666
96.0463970403841
95.9821024926099
95.8928941810423
95.8475354282935
95.9518215447534
96.0182587091241
95.9557404061639
95.940980855129
96.011158599195
96.0594706614867
95.9624869697285
95.8523952071765
95.9586638752596
96.0637583769798
96.069085759904
96.0395059859969
96.0318041502686
96.0269071791876
96.0158103431686
95.987943640976
95.9853481180212
96.0433047344796
96.0587344822059
95.9950053650216
95.968338689224
95.998248515231
96.005709279542
96.0086234440612
95.9683498040602
95.9165624255221
95.8780539102054
95.9181760187372
96.0015443217953
96.0026835554302
95.926024549851
95.7367500381441
95.6392789773475
95.717507513441
95.8152384934485
95.8668622802094
95.882324827572
95.9509296406937
95.9902948678869
95.9448977453488
95.9625561913694
96.006020615686
95.9657996470908
95.980489109781
96.0287453739442
96.0124019852611
95.9911672098248
95.9858431286062
95.9809327268222
95.9427990329545
95.9083803446826
95.9085023917039
95.9546142698165
96.0095871384212
96.0068015632116
96.0636118552253
96.1466783853868
96.1948695028809
96.2162236601261
96.2564814108933
96.4054453575052
96.4236036370227
96.2895594914717
96.2168027455091
96.3181889595489
96.501802716781
96.4532529014627
96.2626224949357
96.3117432703371
96.440756901881
96.5305948925076
96.7268884319707
96.8821348591764
96.7808025072345
96.5953292370354
96.5101816948613
96.6183748597073
96.652355961577
96.6090124161933
96.5830450586433
96.5194342144434
96.6203973147292
96.6316294194421
96.5803152454592
96.6837361417543
96.8032252535252
96.9782431530035
96.9618740435762
96.7992638885734
96.7271259835196
96.8298790084987
97.045858112583
96.9929893979599
96.9258468924776
96.9573559879692
96.9938074164831
97.0240026415731
96.9597737615081
96.9066553509778
97.0329120556944
97.1490987314652
97.2950605560725
97.5470448950431
97.3902166255103
96.9282685591908
96.9084311227348
97.205890111452
97.2243716861014
97.0540901414885
97.0111602006385
97.2871066071351
97.5876901789767
97.7594422656653
97.7370164071373
97.5144793468777
97.3241569332956
97.3433940478895
97.561744241244
97.4470842039084
97.4075412976709
98.0370065586857
98.075592287544
97.7797773615632
97.7999889167109
97.4469957045323
97.2190469008712
97.4340473219684
97.4440770405029
97.4485442971299
97.403507763316
97.1570734247015
97.1344937126655
97.2531563979566
97.3059119788473
97.3523789843507
97.3157703906151
97.0851390402693
96.9000891713749
96.8486251626169
96.7200435297815
96.7593420603435
96.7458986156616
96.5149890570582
96.5034248500575
96.5267442738245
96.4227765947789
96.5720236575339
96.6785957620792
96.6155720167295
96.6215459512072
96.6605356254846
96.643963807853
96.6138781686576
96.5829257140205
96.6251211699214
96.7505695770712
96.7173404525744
96.5854418561489
96.6191191067902
96.6631331904345
96.6156196772502
96.6415129800833
96.7433513851397
96.7709784114241
96.8277114220901
96.8602748008208
96.7471698383026
96.7354187151216
96.9027388091722
96.962337579826
96.9500365539734
97.0816408737971
97.197029600199
97.2005385590453
97.2088211580997
97.2358788783425
97.2996649809213
97.238905865395
97.1898198115544
97.3184325521491
97.4506281506177
97.5139257436356
97.7925645617719
98.0026294629113
97.8528601290078
97.5793892046065
97.634823985283
97.7807034013694
97.6055036858688
97.1996014928267
97.308768660864
97.8200058969922
97.9774261158346
97.9784673045429
97.6426325202682
97.4352591678757
97.6668642345213
97.699851105118
97.5233201029022
97.4717036483303
97.5378562007966
97.5323777411321
97.5212573363631
97.5609836025013
97.7709627579023
97.7377178097973
97.6037443331222
97.5211444549255
97.4081207318871
97.4636228741606
97.6129807156159
97.6509105529904
97.6799606239787
97.4674995037957
97.1576826582665
97.232139943235
97.4964751307212
97.537651113912
97.7484954740204
97.9718546488607
97.8643899016975
97.6280574515707
97.4889666537074
97.4403983564547
97.5157819047502
97.400429565592
97.0975147998253
96.9841454676417
97.2219271877524
97.392449075319
97.327785345539
97.0811955394062
97.0571426610321
97.2309589010812
97.2367104283981
96.9662814605839
96.7715014840095
96.8768155629415
96.9868422520147
96.8982567780225
96.9277990816325
96.9990550642793
97.0576055539266
97.1382758888923
97.2071790566165
97.2947482964058
97.432454625473
97.3137827184139
97.074833020653
97.0288234310808
97.1586757564021
97.1732353496949
97.2002668773754
97.2780418455041
97.1930677535329
97.1339727258581
97.2354123037173
97.2634158891405
97.2636984290156
97.2748906813686
97.2539018036329
97.2745785098621
97.3261308215003
97.3059064613709
97.2978133414619
97.2525304936019
97.2884989182617
97.3600444455552
97.3341552674305
97.2368966211955
97.2848142384878
97.3879539527541
97.4019111025794
97.405615508695
97.4750602896035
97.4070001300874
97.2801192566157
97.2979380820496
97.3108929399187
97.2807645998461
97.346478688855
97.3493733391313
97.341848979365
97.3782053528581
97.3618771173386
97.324838344466
97.3041572840137
97.2175583748597
97.2359692380336
97.1345269365525
97.0762090235618
97.1089946538448
97.071378607925
97.0365445635925
97.0519856641696
97.0159541093472
97.0079679791735
96.9299246432181
96.9194087581623
96.9448144870279
96.9170210513803
96.863388912691
96.8554599240223
96.8902203229681
96.9329491413023
96.9779395124214
96.9860789810683
96.9513909179736
96.9133227798987
96.95947307139
97.0216731881723
96.9981098098669
96.9832580462531
97.0068939856917
97.0661144293562
97.0741223479944
97.0694470056769
97.0407724851756
97.0257627263848
97.0720694269322
97.1545197124295
97.1764246539546
97.163216033607
97.1633862667961
97.1801657036782
97.2539250826903
97.2475721478115
97.2000917949359
97.0735389380601
97.1080262012064
97.0936155700451
97.1055638204449
97.1187273970359
97.0923930632903
97.0253860554092
96.9389391410324
96.7578364836091
96.6204444327345
96.4471572408274
95.9883503298666
95.3515663003646
94.4989245043056
93.4808814214475
92.1186598333289
90.5627497845632
88.744720778621
86.550286357919
85.0007655012766
83.148174661055
80.6458962812455
78.7757723649689
76.9956379660765
75.3224504656786
73.7005105368525
71.9379644764503
70.1903630497491
68.6806672231317
66.7773986164811
64.8173076088651
63.6134834527237
63.2733580881832
63.501089590294
64.0092873024653
64.9106954775533
66.349043793676
67.3631890874724
68.6922500642878
71.0099631355348
72.1796817793527
73.9838429340191
75.7588395830713
76.4218419443034
77.2600706783547
78.02792311612
78.0853094564161
78.6964580480331
80.4762690737073
81.1732013609059
81.5084225286036
81.6846154370897
82.5119275785928
83.5125880078546
83.6484960045586
84.2924233512742
85.5332180128934
85.9171510254951
85.932572109971
86.6295369271972
87.5061220237718
87.8310391623272
87.5765288965999
86.8148404870551
88.2086924047325
89.9039429864024
89.4523951666843
89.0566773713092
89.9665560937473
90.4400788767915
90.3885823718743
90.2661087208134
89.997176423752
90.0880938196972
91.1226816140115
91.4540762883846
91.2561083029705
91.1706569995419
91.3080944427753
91.3932292151114
91.5945899853867
91.890632616322
91.671344398528
91.281102895821
91.5407470657283
91.7930595003673
91.6798545923748
91.6915049664897
91.9311823038909
92.2394100824387
92.4221883893139
92.6674836536827
92.9354149597157
93.0963857217656
93.1706209761079
93.2754686430566
93.4075789157891
93.4746766851955
93.4695055062647
93.4348786345494
93.2768033796477
92.9237685895291
92.4504541501612
91.9519539489811
91.4296139014598
91.4195590759053
92.3381859452611
92.7203446520923
92.738942213192
93.1739891630303
93.7067277750569
93.853384517684
93.9362017229955
93.6477570251982
93.1223546466511
94.0589813739064
94.6067297644561
94.5248459070875
94.5434618323421
94.5373901690954
94.6995754393083
94.7207072576845
94.5835485018167
94.4878904844715
94.4211035792342
94.9000266632303
95.1809403607674
94.9707984287988
94.7543918175685
94.9363324156724
94.8875021932925
94.7060040263608
94.6517046680857
94.6813753415204
94.6145990890304
94.7851099276269
94.9887678535374
95.0072783972427
95.138438154698
94.9898963071243
94.4940601695016
93.6425652476601
91.9924513064079
90.6750978427875
91.0507732022029
91.8587728935355
92.7784834964945
93.6358424336162
94.5000329655498
95.0894948352953
95.1785549094226
95.014542621458
95.0299769185674
95.0382735392759
94.8854308380927
94.6045187150625
94.2884535725345
93.9922404389025
93.5890770626151
93.0309114855937
92.3536515098171
91.8001304889044
91.9948337261241
92.2915942706801
92.5163457303658
92.7164127905461
92.8845450945156
92.6814330741762
92.2651213899277
91.9613586938339
92.1309506462152
92.118885441335
92.0520800817409
92.093178247643
92.2153731665961
92.4591508382283
92.6093446893783
92.7342750421894
92.8077561996043
92.8180703410364
93.0351778176176
93.6407925058811
94.0010219385439
94.2591597726062
94.6244014397758
94.9619973447695
95.0806212044898
95.031237409196
94.8907577116951
94.4091295684489
93.3737165966033
91.7584864034729
89.4292793205896
86.6514990025665
84.189677865559
83.0146013901486
83.2107223290087
84.7005809223104
86.6300066464745
88.0434358244899
89.201408740463
90.2567134855931
90.9146722160766
91.4999032853673
91.8638115438742
91.8934350728061
91.8485739746014
91.951759890871
92.1042910352712
92.1482926727365
92.2186063112749
92.2579156773223
92.213959322777
92.0325112546905
91.886287052794
91.8025836815362
91.7903037941115
92.0592565928244
92.4927169231324
92.9270916687817
93.435497045607
93.858485748948
94.0502666626257
94.057275542285
93.8931254588644
93.5147257056711
92.7973692015178
91.5649170346688
89.6658474593944
87.1062012595779
84.335807941748
82.0700501377085
81.015948275201
81.7837150343291
83.9024451379468
86.5579433857546
89.1063462240234
91.1165762765647
92.4111896650801
93.1201810839906
93.4499230568299
93.5128652051513
93.3997735613977
93.214837865655
92.9810183266453
92.6966515976009
92.3719351240641
91.9978294442497
91.5650616477676
91.1106279692891
90.6590541550568
90.1883083033333
89.6742820426418
89.0026196320416
88.1536006012876
87.1804756893598
86.1471461675186
85.1306803711496
84.1394448536925
83.1646586983321
82.1974574785105
81.2325611470155
80.2440364849413
79.23732039948
78.2067119211511
77.1895448198703
76.2211259752746
75.2744940848014
74.2978402081559
73.2821547131426
72.2483479704532
71.2221444530339
70.2132193538038
69.2495069485888
68.3970368182662
67.6906040202395
67.0737572646433
66.5196190715049
65.9529108330395
65.340073646354
64.6755513649263
63.9974081153754
63.3448875398518
62.7465312427418
62.2424982468735
61.8988047700861
61.7521961398091
61.8269578540213
62.1050940379216
62.5760240360842
63.1856829158693
63.8953164103221
64.6329723648923
65.3427374307991
66.0287551827687
66.7296859032806
67.5247730655876
68.4583600590665
69.4792358686302
70.5324362837311
71.5762690982592
72.5922463392338
73.5558412200729
74.4965537420761
75.4218663256495
76.3509766201334
77.2852561808335
78.2191662813256
79.1651971406306
80.1005080326015
80.985134758137
81.8271190259581
82.5939403816223
83.2649036142483
83.8453577926743
84.3277862303651
84.6873416185964
84.9042137839176
84.987201931047
85.0135150372979
85.0846433141479
85.303801105569
85.7505998911712
86.424774108478
87.2207406688376
87.9438284804027
88.4876853405621
88.8691807085186
89.1167130337572
89.258051785086
89.3163908132913
89.2620438892444
89.0611078787396
88.7480582830332
88.3525271674336
87.8307562280453
87.159207448205
86.3356870788523
85.3218016943421
84.0546487699014
82.53948543599
80.7988795649111
78.8528174782902
76.8627075793865
75.0402601704682
73.4944036076534
72.2283447309119
71.1983017680464
70.3343500241576
69.5937623686433
69.0431044554265
68.7556848987221
68.7182642276019
68.803058925392
68.8310304909726
68.7115226815482
68.3437738991175
67.6907080165347
66.8588511903747
65.9782593962085
65.1366176153912
64.4087796996724
63.8281275688327
63.4074648591696
63.139121975976
63.0186982138792
63.0099974031972
63.086676301328
63.2224462464805
63.4151632438521
63.7071171927518
64.1607087469484
64.7867600384022
65.5717122208472
66.4407660390468
67.3509754358161
68.3036115837314
69.2577064048129
70.1628622690888
71.0208825207271
71.8518238549394
72.6447578264797
73.3752212404403
74.018421334546
74.5589083386909
75.0018225842448
75.2952507918902
75.4549175652541
75.5533654164689
75.6060813773963
75.6526311604368
75.7564620835905
75.9446428897744
76.262765902589
76.6897265811785
77.2075266181456
77.8202174952441
78.50078271526
79.1509496158385
79.3195597893103
78.1992943007683
75.7100157955229
72.9666627594248
70.7071194322981
68.7077394974352
67.2007319815445
66.9706130305796
68.1798623467295
70.0629784221776
71.8404765865899
73.2762634859481
74.4214816860102
75.3169728382569
76.033399976344
76.6590554483756
77.2271625120086
77.7336423829779
78.1426987957134
78.4468849633062
78.6567132624775
78.7973456568564
78.9819892258959
79.2170968705431
79.3841765758164
79.4137050429462
79.2696471775891
78.8983546781197
78.3135387884996
77.5988108105929
76.9442429684587
76.5301518436326
76.4868386249182
76.7664001471361
77.2480284224301
77.8040451086949
78.324289731919
78.8069279779805
79.2721101127119
79.6844375868231
80.0625252197551
80.434763917241
80.8108270573373
81.1334892357562
81.4049907001515
81.6398522593071
81.8576075659819
82.0872339213479
82.2715949949455
82.4275809709336
82.6265185553874
82.8428611501916
83.006414236698
83.143553396492
83.326364327457
83.5298405923478
83.7463497468081
83.9531910616817
84.1186883416207
84.2528769492993
84.3566326257044
84.4458927483573
84.4994909703787
84.5165033073896
84.4525805645587
84.275690436417
84.0604564548615
83.8388549454276
83.6192967588953
83.4763432856404
83.415327810916
83.4637390184981
83.6254871837222
83.8130675182013
83.9395931745074
84.0288394385244
84.0382064917568
83.8583572549622
83.4318713315412
82.738921069176
81.8059335859532
80.6396500745716
78.9880214538243
76.3916809435735
73.8394150627359
73.5344319144857
75.2445591037256
77.0409398328974
78.2631953644634
79.0748317935357
79.5879171892795
79.8036373250576
79.8503805538246
79.799530767076
79.6749011671383
79.3763261873207
78.8651024619055
78.4193238883256
78.2434146351989
78.3746726684772
78.7824161698948
79.2568119108848
79.7164642746917
80.1402450668075
80.5772725378285
81.0502599729262
81.5469811702071
82.0044408572927
82.3547078156115
82.6620589049687
82.9358541020354
83.1846841632536
83.4446047643485
83.6248046098145
83.746510710824
83.9161401810754
84.0876123359544
84.1639609168987
84.1900521967255
84.3075675280379
84.4969920020085
84.6772811278886
84.819562537873
84.8481373378942
84.5893316025695
83.8090124235736
82.8809905987451
82.5598743368515
82.9307668469937
83.5350168689331
84.1068446799396
84.719389573252
85.2827274308626
85.7377655073664
86.167970898123
86.5475508874678
86.8754699782125
87.2763790784678
87.7488129038044
88.1348956942595
88.567110400601
89.0679694755131
89.4677057595264
89.82136916823
90.08963303369
90.458357115554
90.8165793208718
91.1670664234907
91.6151408683034
92.0145241691635
92.3051898374426
92.5305054522251
92.5199712007751
92.1585104807941
91.1469738784053
89.1167597070964
86.017773972577
82.3356443069667
78.5915950223241
74.8756215692553
71.1838557860533
67.4472054676042
63.6947834564637
60.4246693375176
58.438608822148
57.9532821212908
58.5903335907812
59.6290257009487
60.9154630832684
62.254064813101
63.5476669632596
64.5544317260191
65.3991886812236
66.4769987623376
67.5079538133303
68.2870056936766
69.2558407115757
70.3833750971918
71.5057965540106
72.453287812695
73.2503978840889
74.0941034818192
74.653686187654
74.8711727721988
75.2126419845466
75.6735403956043
76.016150901733
76.2284324031373
76.4249691330586
76.9156030946679
77.2173442181265
77.380942450789
77.5530425172212
77.9686694699115
79.3187243546965
79.4188265327608
79.1771637995189
79.5239484606606
79.8593326273423
79.6438759371117
79.99312449963
80.4436055877905
80.609911767552
81.0586685924295
