1798
3999.43349933624
650.420452594757
1
128
4
97.6491416846517
97.6131789555806
97.5415825888896
97.6196756323574
97.5968367580524
97.5746669369877
97.5841433723531
97.5378389351789
97.4529885839157
97.5088161508378
97.5012867125167
97.4147832969977
97.4343549568258
97.5192945275007
97.5293114250065
97.5428415281212
97.5574304868276
97.6175772005463
97.5732123468211
97.5321361517292
97.5042363504498
97.4785145470035
97.5456116306159
97.6738353104726
97.662811484322
97.5562370538239
97.4899464629936
97.5557214916657
97.5428005965424
97.5246101942614
97.494575266676
97.486696747852
97.5862251553902
97.692011218582
97.58287081371
97.5124604263989
97.5114514366236
97.5350072725494
97.347062706627
97.4062469671353
97.5463868860196
97.6539715792843
97.5804527957695
97.4659647775581
97.5035912893456
97.483993045639
97.5783979178637
97.6075230121697
97.5626449076965
97.4652245168019
97.3432312585877
97.248196614085
97.2250965664306
97.4244010759391
97.5400729001077
97.465075446408
97.3042383743702
97.4292351306356
97.6422126462463
97.3711056673259
97.3621496056499
97.4491449202376
97.2967054433458
97.4364509788858
97.6525957985776
97.5013333389806
97.5234831931195
97.4586854575159
97.2168864232509
97.6185564161197
97.4031931634769
97.3765959324773
97.401463452094
97.5699378261166
97.6174370143715
97.5380323643573
97.1882928684546
96.9879046183567
97.3369274098592
97.5042517049546
97.6235381152386
97.6327887159541
97.570166843338
97.4289950985079
97.2548810781828
97.188237314912
97.3354356734044
97.5182307246757
97.5018137112697
97.5519913553207
97.6337328747495
97.4969265139977
97.4610576620637
97.4232447211653
97.2303502431133
97.439485137084
97.2957298380499
97.1221819756382
97.4297714134757
97.4810218385305
97.6689570510827
97.4954267070797
97.3348650067186
97.4623272085141
97.1836818614719
97.2704621940674
97.4644992405349
97.2371869354664
97.4174314808939
97.5149958804325
97.5512917632026
97.5366849828206
97.4533136584026
97.3629948076887
97.4339350602449
97.4776116507142
97.3209118674367
97.3916095274169
97.5755093266855
97.5597163277997
97.5379853744326
97.2681908771261
97.2752416515712
97.461418363844
97.3866586295646
97.4529267635609
97.3407841456701
97.3086969465153
97.3119089014625
97.4953914786529
97.5190459213511
97.3403517855866
97.0951149445582
97.206724402743
97.5938625440484
97.0665847776336
97.2403479966623
97.312903062259
97.5912393564219
97.4222314395445
97.1009519599008
97.04019916548
97.1550742140517
97.4907495910194
97.4972132183456
97.4602649377008
97.4378274522696
97.295130156991
97.3895141521729
97.4445966279157
97.5190777497848
97.5723381009657
97.4075017784819
97.2029560559665
97.2834807136297
97.4198228354242
97.511537758551
97.4451197233012
97.2289641408415
97.3088351792361
97.5096777759847
97.5753912705448
97.5968843596539
97.3932682305006
97.3006967005382
97.189999426443
97.2837056450131
97.4787354380713
97.5055386885824
97.5501884676676
97.4831727790534
97.4007216555354
97.0083875311316
97.3662491917227
97.312159897468
97.0381158368791
97.2092792183419
97.3389405898175
97.3443419365005
97.3966357442855
97.3711193626215
97.3269579434249
97.2578821452043
97.3205214185716
97.4578207654411
97.2985580967217
97.0096920467586
96.8754785049779
97.1020457703668
97.1985585655711
97.2707912059916
97.3498242695511
97.3014979838068
97.2377787507508
97.1866326556937
97.2457849341987
97.2368118485402
97.0305254144773
97.130942815357
97.186805180011
97.3123371505121
97.2850654990771
97.1828305394657
97.112735281534
97.1358359844892
97.177709689782
97.2288368604276
97.2284257036622
97.1775794608973
97.1873116390188
97.2115060771142
97.3256996682795
97.2804844634067
97.1650843467889
97.2564957635619
97.2855319563082
97.3044863265669
97.3499267844387
97.2959474481006
97.1426045953562
97.1269266075667
97.2491634623948
97.3985792947629
97.4139953761722
97.3706494272005
97.4011357225971
97.4539396532544
97.5032312001133
97.5276905090373
97.4872723742997
97.3288051508046
97.2626214450693
97.340694849936
97.4503419078948
97.3212628054691
97.2041335250644
97.3121822916863
97.3690486665628
97.2126542553384
97.3376790311412
97.4779103303381
97.3300850602168
97.2357459191616
97.291976547128
97.2202558311341
97.1989924931909
97.2772444410284
97.4045702043181
97.3798082534939
97.2740112247677
97.3734668618294
97.4756984094829
97.4589238471458
97.4019811071396
97.3482977475873
97.4336382197376
97.3661884646451
97.3204860508736
97.4383663334204
97.4170519941091
97.4051914100137
97.4224019360748
97.5282609744948
97.4951010430458
97.5043777333582
97.4655146998052
97.395763003637
97.4649434764731
97.5138017355224
97.5006310614924
97.531233285168
97.578825319839
97.5687471151632
97.4983570333772
97.4905746144673
97.5914713147326
97.5247948262301
97.4532334594682
97.4984208822989
97.6110026834836
97.5815503687268
97.4727577590053
97.4190010931963
97.4129583427265
97.4715962828625
97.499275128004
97.4466901454328
97.3959177381712
97.4195717580877
97.3791904006331
97.3506126765107
97.3433294827996
97.3630724484218
97.3628721160673
97.3642390403225
97.3957466261761
97.3887270437062
97.3042767708644
97.3349346163037
97.2747081697345
97.0907230733702
96.9778757660393
97.0759785191015
97.1141434619855
97.0973698612629
97.1651153793071
97.1468043470819
97.0362417919348
96.9928515974843
97.0617838186792
97.1205448474601
97.0502442108125
97.0605781360724
97.1510086541257
97.2535468049692
97.2706844754077
97.2771774011244
97.3101987709285
97.2951765060519
97.2225538698858
97.232796634628
97.3379718046379
97.4243891283166
97.2919930945672
97.2082753893211
97.3934499017494
97.5644211726261
97.5675175182188
97.4656741492743
97.419173249134
97.3708215330239
97.3369306140287
97.4303665114772
97.4243904284456
97.3713452477451
97.2877796856504
97.2644745789917
97.3648409928567
97.3714475471236
97.408266260848
97.499767048728
97.4384617237838
97.3982032155213
97.3644423190571
97.3620704317871
97.3488889340841
97.2811486666856
97.3397045727562
97.532037382783
97.5470787625105
97.4159057531735
97.2468045557725
97.3063329801891
97.3309700190836
97.2543810725285
97.2773561339196
97.3233304551596
97.3893164228679
97.2574607208377
97.180562431869
97.3492712823998
97.4202255612437
97.3470638055563
97.2904572215645
97.2266131147003
97.2750137569493
97.242702791181
97.2693643224301
97.3977818052002
97.3514293581105
97.2022018744945
97.1580922809688
97.2402595310222
97.2745458969704
97.2272465422076
97.1414628667588
97.1823988033907
97.1874616870593
97.1691516678643
97.2944216333731
97.3916300705174
97.3734459736126
97.3095360794977
97.2225144920395
97.3148383515061
97.3454283024717
97.2944124025881
97.2919637972055
97.2910551407648
97.2604325343074
97.2270199472314
97.2778684248473
97.2874805972947
97.2868477733084
97.360102113466
97.3501094121127
97.3104602801952
97.2765612487269
97.2807095718932
97.2644812612777
97.2757435066174
97.1930681793465
97.1799612594268
97.3353782555541
97.3367554613181
97.255505883796
97.1867763016788
97.1346883661487
97.1880008464587
97.250838903832
97.1829336682533
97.2557936399747
97.3638564320642
97.3264214605945
97.3030303308449
97.3378241746013
97.2702553692918
97.1866449539688
97.2751642091186
97.3159221056474
97.238012140029
97.1673427949308
97.2345318581701
97.275100969662
97.2117585303975
97.2116657445396
97.1954330507283
97.2228659300491
97.3235623576355
97.3105833410723
97.3491147742116
97.3272770002887
97.2748740734226
97.3416208003887
97.3607136694201
97.1883783526536
97.1683156619205
97.2151342679765
97.2098136648663
97.2215258484092
97.2331510175315
97.2499012701092
97.2312403903422
97.1884793247779
97.1925883760382
97.2069646955927
97.2251866231487
97.2742305090263
97.2503227520709
97.1845497575381
97.2190817646548
97.2312512881417
97.1592599704227
97.1802532661033
97.1728057199027
97.144506539697
97.1139245857506
97.1330987361507
97.1770184977018
97.1587944592666
97.1576842413898
97.1606479570414
97.1640108069473
97.1399116051143
97.1363875429695
97.1251236334325
97.0819031578169
97.0881496131336
97.0914610570192
97.049356470412
97.0499340356471
97.0517005966341
96.981239056471
96.9197000202703
96.9581897877747
96.9723002244486
96.9563652937059
96.9250415511193
96.9138786169034
96.8745839987325
96.8986052545479
96.9021141927291
96.8830965025229
96.855772525432
96.8424833428892
96.8716806093333
96.9259208763191
96.8928677170005
96.8623421497729
96.8346617392393
96.8415157413387
96.8523773270673
96.7718301370066
96.7187921030949
96.8004693765002
96.8193076224297
96.7411287406717
96.7143046304503
96.7458139853801
96.7252792092927
96.6766625225263
96.682208834644
96.7172230040432
96.7400753957436
96.7178327536663
96.7118039913258
96.6988093460235
96.6580152824885
96.6520226129237
96.6673118613425
96.7417508381396
96.8600004613368
96.8866990448506
96.8485791328369
96.8403583495447
96.8541422592811
96.9362880496122
96.971947716193
96.9432908751051
96.9175549685538
96.8942710900555
96.9000655478058
96.8965652461663
96.8975392489851
96.9189363467748
96.8535655456428
96.8221795141046
96.7061828545719
96.557104972984
96.4970085132899
96.4696994457468
96.4552226011629
96.4810384004361
96.510128311965
96.4598045015275
96.3711286312366
96.3482924545415
96.3465716737859
96.3498780552716
96.3738828550607
96.3024047740883
96.2087532359564
96.1933040192927
96.1378830441849
96.0978248443003
96.0480444173748
95.9739632294399
95.8917022285099
95.7224608116983
95.5643182835963
95.4707622502492
95.3863938917468
95.326392766194
95.2352029882396
95.1758343847571
95.246538035774
95.3204786791092
95.2964772277849
95.3054149805172
95.3734825970481
95.4506292879562
95.5433222625671
95.6238134550879
95.7457962930634
95.8401856765558
95.9335171354302
96.0817047919183
96.2103714520373
96.2707794041311
96.3319165506101
96.4638315602524
96.5559915808595
96.5978261521228
96.6107807202287
96.6179509245872
96.6616230381688
96.692729152014
96.6285824920608
96.5389057617703
96.507459764103
96.5247551989311
96.495541759316
96.436451626944
96.3732137134448
96.2393458047278
96.1101905721616
96.0756115669487
96.0723022999922
96.1122815420914
96.161221306616
96.1733689247402
96.1721552916846
96.1708882585124
96.2544147301934
96.3151438678872
96.2753638718787
96.2404794119187
96.2349442036165
96.25939870282
96.2670723958552
96.2764639863998
96.2848164965071
96.2574769896821
96.2887408821876
96.3445030640925
96.3780354830601
96.39289142145
96.3934461331548
96.4293378215909
96.4798231393103
96.5195217410291
96.5175804120976
96.4955430306572
96.518776675818
96.5843917160635
96.5959455457131
96.5514055033002
96.5291296935262
96.5743786558707
96.6432706603057
96.6506922636642
96.6090746001376
96.5773262476211
96.5732639758496
96.6242853113618
96.6536049565896
96.6778297078254
96.7120529667055
96.6879103276333
96.6455790426875
96.6849594096377
96.722209082809
96.6771767565977
96.6715526821247
96.6891417025963
96.683785188387
96.6714180684173
96.6553653226038
96.618816438084
96.6033204759942
96.6093609849445
96.5812721727972
96.5475493487561
96.5910033887175
96.6066035900268
96.6193368119895
96.6587053658694
96.6453240352828
96.6153455255744
96.6771452802912
96.7473593894363
96.7400433527458
96.7020110083068
96.7021685453429
96.7110304166512
96.7163729223399
96.7207435380577
96.7236060783329
96.7264410227441
96.7184065739951
96.7091925933309
96.6928630801544
96.6968811891714
96.7193247492755
96.7500149233822
96.7297683434044
96.6825516451675
96.6650276921948
96.6848114139856
96.7183349109222
96.7654243653092
96.7823504702992
96.7472943066691
96.7211125085848
96.7072271858739
96.6749191633724
96.6746203348589
96.6971443591227
96.7137361160067
96.7154829105516
96.7416765085197
96.7679607719268
96.7624662900103
96.747313808736
96.7469965226885
96.7552407244892
96.7585518530666
96.7497490705292
96.7597140432455
96.7513684092754
96.7513927700947
96.7678405273567
96.7667380657058
96.7751945488783
96.7891697081912
96.7865641184644
96.80232291144
96.8071115885065
96.8032274052512
96.8324267273003
96.8487270628734
96.8299241612119
96.7996038522495
96.762334419643
96.7487677824262
96.7907514558026
96.8142638072313
96.8201708725145
96.8597008637423
96.8273078349042
96.7583901510479
96.7381374210231
96.7536857317261
96.7882089271337
96.7949789242608
96.7770330028193
96.735023270311
96.7155698473686
96.7232336377614
96.7146031763773
96.7223322093077
96.734259506696
96.7181518456647
96.7282142279848
96.7304297253748
96.7229115379549
96.7262319844228
96.7341413998799
96.7218120751449
96.6994042603707
96.7101855471231
96.751751082256
96.7682411533791
96.7276252785726
96.6990990351605
96.7385831373769
96.7572974081314
96.734562598959
96.750136163654
96.7608135058162
96.7840597114067
96.8123245546455
96.7692642642493
96.7564444603146
96.818901450283
96.8406259369872
96.7807432622816
96.7657442640612
96.761000570134
96.7536980867296
96.8042295665591
96.9116381593411
96.9428059637109
96.8832391661406
96.8529129189921
96.8183480187641
96.8155614732608
96.8422185007709
96.8809557309181
96.8650118578685
96.8306131681233
96.8514318121146
96.9113223331596
96.9372845028868
96.9339697938139
96.9648868418734
96.9635533197684
96.9206617469262
96.9237878425869
96.9132214427024
96.8850210430748
96.8594067538719
96.8805042014166
96.942458073099
97.0045113448673
97.0411491861422
97.0035177550918
96.9389781225929
96.9496331724139
96.9167131535123
96.8576635825899
96.8297130690863
96.8939774730817
96.9733316286906
96.9496197775598
96.8977340939568
96.8888754093428
96.9654858336144
97.0056131412252
96.958498555192
96.9830469767632
96.9660243005555
96.9093756048841
96.9469065604238
96.9715632919213
96.9592078611781
96.9184778491551
96.8257113891598
96.8617402926875
96.9994968010235
97.0234323889959
96.9593962941651
96.9430104035449
96.8689045445111
96.8203719573448
96.9412125053416
96.976868797102
96.8922238963183
96.9034392756142
97.0144691549965
96.9878002611812
96.9732875089148
97.0597862957971
97.0439482686243
96.9671145126721
96.9502332184174
96.9736436103516
96.9936268026616
96.9540012233992
96.9150022618004
96.9234534003636
96.9252838742003
96.9432368389141
97.0021070297538
96.9743629615711
96.9595778881943
97.0061031857535
97.0493646580573
96.9922524677957
96.9172017419819
96.9611092862823
96.9999554248384
97.0034223744665
96.9900739306372
96.9715514416951
96.9534804702897
96.9356502067269
96.9793393210182
97.008717487501
96.975727927436
96.9724224782283
97.0433588967073
97.0871354988049
97.0370994768301
96.9812083542787
96.9477910037538
96.912838255756
96.9167611429082
96.9438739261931
96.9526185862637
96.9330050071047
96.9196138991661
96.9160640350283
96.8836594843525
96.8505185172782
96.8449752183173
96.8151017798277
96.864965303302
96.9123840720777
96.8821812000627
96.8887467125542
96.8696101985836
96.8669214991318
96.9265234192745
96.877932812346
96.8243999699264
96.8241193998361
96.8513400217144
96.8530457850708
96.8110894098424
96.8110203402304
96.891588375887
96.9030277752179
96.7296209095144
96.6356226648509
96.8250557221621
96.826420558242
96.8062790418019
96.780108352334
96.7452971484817
96.7979791279778
96.8010184402814
96.7979487468085
96.7595838616744
96.7624007312997
96.8212808189662
96.7850698844683
96.6606984826751
96.6638474125115
96.8077352381475
96.8593718670256
96.8253755232116
96.759808009149
96.6858596203115
96.7314019609661
96.8382272641206
96.8137104214493
96.7712833277941
96.6222716652704
96.469254781588
96.5010754918522
96.579176535957
96.6246564106875
96.6185246806371
96.702889781815
96.8000459847546
96.7985268010744
96.8320110129982
96.8844384573814
96.8886005762474
96.9265277708649
96.9629436405316
96.9119186863936
96.8402805767361
96.810255225596
96.8559561200403
96.8644447878106
96.8295806892814
96.808850628751
96.8750004623332
96.9413281752018
96.9110722870237
96.9543172385117
97.0713832083572
97.1639671462479
97.1299547847179
97.1086425176015
97.2430698443216
97.2237380154244
97.0589249651022
97.1575010269276
97.3122971124362
97.2836012183103
97.2126455838648
97.2002776748082
97.2741053596681
97.3297828481774
97.4338125368823
97.6338094015883
97.7012411548964
97.5273602057653
97.3766626628582
97.3351236201834
97.4771856847136
97.5847626812006
97.5220760587302
97.4872435403249
97.5517377650319
97.6840401079683
97.7217730208022
97.6608928978029
97.6136787875147
97.6120362684156
97.6394093802192
97.6143120249715
97.7199494476164
97.8090670937363
97.8287954480083
97.788487205387
97.6427906613393
97.794429177138
98.0582389153718
97.9730183697846
97.8143790374364
97.6980022962582
97.8251800209845
98.227764174459
98.3741062883829
98.341832237695
98.2651754165702
98.0646509757454
97.9167193700782
97.9735258529086
98.0163824579568
97.9747757078822
98.1608020048303
98.4041320463594
98.4448035396869
98.3973439033686
98.4750174006056
98.3935539193119
98.2733995406751
98.2094174220054
98.0500090534618
98.299567339582
98.6938623438043
98.7429907998511
99.0441726171635
99.0319741571997
98.6185459197223
98.4921445514811
98.4312217324598
98.281713465702
98.3798271737583
98.257986859649
97.9966909824448
97.9857690358412
98.0108749076369
97.9593136338572
97.9852231500616
98.0872449165251
98.095218722724
97.8840027362058
97.6941523266062
97.7079482863705
97.6321340238264
97.4875831175795
97.5299557101932
97.491662449518
97.3680480693684
97.3773554939021
97.4173351661797
97.2718051111296
97.2615234425308
97.364414303195
97.4684652350129
97.6116619419052
97.618737506881
97.4827620159602
97.5129667805866
97.5758721856835
97.4801469628059
97.4524823407577
97.4805505789827
97.4001785070744
97.3803086051055
97.3926216602157
97.3200826967763
97.3322438763663
97.6174037948349
97.6319045704854
97.5565201411664
97.6864326026356
97.6137047517721
97.4653742912881
97.7314151489464
97.8725915776604
97.7841809663846
97.9135932093852
97.8844321880452
97.7311185364543
97.8534234252129
97.9261482231064
97.9478282064086
98.0244485702081
98.1695511014593
98.3661052333568
98.4624617852964
98.5500326236052
98.6454445373288
98.5620905164055
98.5876685318683
98.5452886310892
98.6084167679967
98.5445169166856
98.3535487977356
98.5409693143095
98.7225703896329
98.562236710859
98.5544223564505
98.7251170139099
98.5327231104368
98.5208335793786
98.7618639937153
98.3692609792295
98.2548380569158
98.5217349157178
98.5763448765335
98.2357606726026
97.9969780627707
98.4192140314748
98.8302663163359
98.5844476148654
98.3792663996665
98.3514433329452
98.2931766018974
98.2302184609459
98.3293633826237
98.4280884684789
98.428277230327
98.2908739523396
98.2465005213691
98.2880299526725
98.2644139514472
98.2596850284326
98.678907961856
98.7974508423008
98.3615438925746
98.1058818851011
98.2541490780736
98.1868507437917
98.1606765994122
98.1116811545161
98.0060199678903
97.8949643227801
97.8585573257847
98.0042626088297
98.150764828873
98.0107219540639
97.9212676383982
97.8807416025744
97.7809793189411
97.6436097040157
97.6640292136613
97.6654299933888
97.73252566667
97.6740859890214
97.5962961289234
97.6171449501258
97.7615419157305
97.8254285633589
97.8679271570777
97.9055789910584
97.9621881084567
97.8570183134028
97.7742820140656
97.7646305591212
97.865777709397
97.8733508160911
97.8092579719951
97.7972425703371
97.7338851846858
97.7492921261125
97.9083958072791
97.9695893800611
97.9895044221742
97.9985029019558
97.9574194932007
97.8392646480064
97.805525442907
97.8413093575574
97.8783373533821
97.8294748632991
97.925364699865
97.9526579327081
97.9060200794668
97.8722102110669
97.9202662629534
97.941070566773
97.9807973855089
98.0212495612876
98.0190382828807
97.908442509176
97.8379575528908
97.903757047112
97.9728967649567
97.9335649873702
97.9469811147912
97.9572498566491
97.9889781644913
97.9892058368937
98.0098303750654
97.9900672608284
98.0051395102733
97.8884382244674
97.8702456086432
97.7548716650488
97.7561373949744
97.8133205669519
97.7502540207432
97.6907317738087
97.7343225416751
97.6868587766357
97.6206598062042
97.4428659181835
97.5383064885343
97.6176259737933
97.5685503330972
97.5796808697989
97.6021981373057
97.6630730296312
97.7091350114793
97.6819677747721
97.6052957816582
97.5556787038111
97.6322857812801
97.692741658123
97.6688053274432
97.594543417355
97.5618265684319
97.6390495994846
97.7456553000736
97.7169578493932
97.6944579287953
97.5960260410339
97.6309672888858
97.7209464840923
97.7595724171352
97.76473072869
97.7814300391945
97.7757561388754
97.7836603081927
97.8760403988561
97.8288026486947
97.8294664685005
97.6731249269179
97.7457591602116
97.7237819296974
97.7512561188421
97.7912226700795
97.7528601558202
97.6960549513279
97.721699238936
97.5747558240738
97.4254017755993
97.2797855038539
96.8664304178221
96.3882149486545
95.7472545067461
94.9902654599999
93.9060348834753
92.6935843855502
91.2760175632367
89.4647203536714
88.2333132534365
86.6670923518503
84.8156147718361
83.3849794363556
81.860314936209
80.501570343493
79.1856951025639
77.7458623454104
76.2692478537964
74.948813863822
73.3495058715134
72.0408270739009
71.1307416044556
70.7441137125346
70.7103305659778
70.9473413355395
71.5789844625056
72.6768699654268
73.3927676312848
74.1762117415126
76.0683851563376
77.1792510053083
78.4630379743298
80.1108486842298
80.6069531319004
81.1838737519469
81.7576069715389
81.7548568794319
82.0664531113066
83.8524494541354
84.4655984860234
84.5817840422213
84.6262295111287
85.2370382495221
86.1752438915822
86.1847395784133
86.6701576577665
87.8510319749565
88.1592792600642
88.0426547250527
88.6064911174247
89.4261109496652
89.6304468068419
89.3023940149465
88.4407482758203
89.6148072342078
91.3539150671
90.8205223801307
90.3006151327832
91.3016530665933
91.8432847109463
91.7423288774261
91.5329317841449
91.2158019992309
91.2305248979857
92.3638212674674
92.7580338995175
92.4787994269378
92.3219267306417
92.4941600865387
92.5442527753204
92.6901036252971
93.090489049469
92.8941907996575
92.4686106238003
92.7764150010823
93.0489281329242
92.8503845443384
92.8675847390715
93.0706185901698
93.3540439902176
93.5103813204367
93.6853470885594
93.8795434870787
94.0389279701768
94.0984777020035
94.1974995941458
94.3574576807535
94.430905496352
94.4380667884523
94.4348656926916
94.3131382359729
94.0559961538878
93.6681755707408
93.1863179669372
92.6812453906915
92.5907342179806
93.4543518428453
93.7750520221216
93.6459412157433
93.972786356478
94.5854861394231
94.6804064244836
94.6880689845485
94.3184684945126
93.5295137905588
94.5923154466011
95.3507696662129
95.1533245188175
95.1601017682538
95.0948535929057
95.2948866490191
95.3126782530636
95.0528796623296
94.9004229011745
94.7318314626519
95.2688853925462
95.7104254528957
95.4893891430209
95.1633192353811
95.508272956576
95.4929592550436
95.252109904516
95.1658870322718
95.2306764712607
95.0703791868695
95.2127010623433
95.5043938616944
95.4188973636569
95.6797752145195
95.6607717861352
95.203181406051
94.3958668009276
92.9297674410081
92.1369136822893
92.5716946914544
93.0877177076697
93.7194091121575
94.4101728728663
95.1947184781511
95.786835430929
95.8665431862474
95.5901788868068
95.6698679672432
95.8174272406701
95.7770953258787
95.5830030576526
95.3110961379624
95.1037661994465
94.7142275553847
94.1641610224576
93.6286968537313
93.2030151287636
93.4940903797119
93.6712158282353
93.7516109025769
93.8697669953437
94.1202367487843
93.8785654726948
93.3725841129231
93.0434570753651
93.4114088662686
93.4655547635467
93.3360528144773
93.341063229462
93.4436998016181
93.7336317634636
93.8742873801126
93.9441709710646
93.9747995021281
93.9381464561717
94.0245596751645
94.6439430137849
94.9612475196902
95.1250746407804
95.4276417675314
95.7805103097106
95.8836704112708
95.8258793768622
95.7685520241701
95.293341785972
94.5437584012605
93.4320972024578
91.598483905197
89.344917478442
87.2892297023246
86.2404864669619
86.2353786571896
87.3235282943453
88.9221120504139
90.0632296094359
90.8851178038057
91.7901688733267
92.3397279021207
92.8793978343498
93.2868235856282
93.3108557188876
93.222878827981
93.3550677664834
93.5615500562983
93.5562613623454
93.6083171916414
93.6269312272364
93.5711798399258
93.3481826504272
93.1982866675267
93.1814939610717
93.1794844409104
93.3915788019651
93.7467508678535
94.0599364620419
94.4921361305704
94.9361252897015
95.1321124713558
95.1501508680145
95.0607796871545
94.8275692889701
94.3212975712104
93.3993867107944
91.9282472372895
89.9110186993365
87.6612975898476
85.7008323872117
84.7057802060445
85.3010657552068
86.9724332681688
89.0773882310876
91.1148495403218
92.7457673915263
93.8256792595282
94.4240745500528
94.7034516699236
94.7774669091037
94.6673395610412
94.4832351715846
94.2972999744661
94.0918843444953
93.8197073731385
93.5136320847605
93.1799921653409
92.8198103162974
92.472336235323
92.1062238365795
91.6915491077966
91.1507111201778
90.4692937402441
89.697410460097
88.8557680818377
88.0243023459657
87.2207045692095
86.4128359408188
85.6558862534339
84.9207278759359
84.1419296013844
83.3641672834444
82.5617044417027
81.7574960911345
80.9747445713012
80.1877894635804
79.3871409941984
78.5727436787747
77.7228114576552
76.8590660503143
76.0077658893981
75.199383579735
74.4905827384904
73.9187062248455
73.4326498940348
72.9716633490198
72.4975291738209
71.9902476073518
71.4308478637068
70.8432294741829
70.2669648571286
69.7396237797397
69.2975477851361
68.97215857092
68.7954711624535
68.7965071162681
68.9699542002641
69.3143265828734
69.7774509174893
70.3217014376666
70.8867136103286
71.4440715344329
71.9944340854956
72.5564938442546
73.1734225104258
73.8873003178002
74.6907746344904
75.5323513343708
76.3582017500188
77.1646056708313
77.9391792382541
78.6985830080295
79.4608885654845
80.2267015325324
80.984082474339
81.7297992843812
82.4947616389898
83.264461643854
83.9977620865964
84.6953495663101
85.3387919696547
85.9114712678821
86.4162160994337
86.837186773504
87.150160497643
87.3503292782193
87.4493587030205
87.484036347003
87.5282936796338
87.714887073007
88.0965886700168
88.643169807889
89.2828914444178
89.8964845191458
90.3906943738544
90.7504460690433
90.9948198665596
91.1355869258028
91.2067762254382
91.2033158821794
91.0939725266652
90.8832325007808
90.5756511864661
90.160948381141
89.6420090507194
89.0212258256716
88.2609623847484
87.2835966831778
86.0883570783134
84.7189430106985
83.1676442279023
81.5638170893097
80.0678793527984
78.7673179988107
77.6745083798705
76.7640769167722
75.989773087661
75.3371848789267
74.8460054947276
74.5809675525006
74.5494571973686
74.6226628321022
74.6405783647904
74.5463785096157
74.2718312251635
73.7571302205843
73.0607166211745
72.3047501375597
71.5965095709625
70.9811440810256
70.4532173603831
70.0490042379529
69.7778113254262
69.6546253220625
69.6273131344312
69.646011523184
69.7205238359284
69.8497194640531
70.0454296923913
70.3685439905543
70.8233915367721
71.4019419346734
72.0698459512626
72.7773883577981
73.5044416411612
74.248108606182
74.984419773288
75.6958651891751
76.3754970111831
77.023670292574
77.6475255354587
78.1921874679151
78.6209313819999
78.9654921971748
79.2289133483733
79.3958544348164
79.4808863984721
79.5175662775057
79.5519291961572
79.6235749682052
79.7658570386605
79.9870622462009
80.2919045933353
80.7193192521574
81.2391684022957
81.8117557157042
82.3915820326078
82.6666478440999
81.9608657097776
80.0813340800687
77.8689571928413
75.993333354334
74.2958992642392
72.9431342314338
72.5641581605487
73.3564014052639
74.7897706608771
76.2129233281566
77.3828848522907
78.3164171942283
79.0378165641849
79.6374671675611
80.1779526850143
80.6398831536123
81.0468791816004
81.4148068152199
81.708947274906
81.9116596444481
82.0412296833438
82.1977098791546
82.3905054569591
82.553402426992
82.6232713622913
82.5400103551099
82.2695276857528
81.8203683740873
81.258897577745
80.7150673769683
80.3634339842611
80.3068867250264
80.4775778371449
80.8098766040544
81.2417454512097
81.6771576277659
82.0673585303351
82.4527450832208
82.8115997880753
83.1136999012568
83.3811309828527
83.6693480186914
83.9397719347685
84.156586004651
84.3579235393656
84.5553959526513
84.7359145007616
84.8872317921738
85.0199033061402
85.159852524325
85.3317672531604
85.5082166917565
85.6485565111331
85.7785128403051
85.9164519434367
86.0674043864678
86.2484841212165
86.4144219604288
86.5422431370638
86.628042226091
86.7069461085233
86.7895999787458
86.8066145415978
86.7376384017667
86.6242287590266
86.4762990659234
86.2844432838197
86.0824481569295
85.9596599590082
85.9500144207518
85.983633110804
86.0841151531143
86.2487560319579
86.3752157255891
86.4710821350467
86.4810370290017
86.3819594246174
86.1175574225106
85.5990375316072
84.8578255788166
83.9512741009249
82.6860689262624
80.6596895163648
78.5519396492277
78.1571341628992
79.3939854890995
80.774247328435
81.7304769368691
82.3720311658529
82.8128345971265
83.0329489810836
83.0830147005269
83.0936591294778
83.0136069561325
82.759071228159
82.3813899037987
82.0322631058409
81.8442049772164
81.9007026346028
82.1721184632592
82.5045269462061
82.8151890809079
83.1575567334627
83.5663435610045
83.9592979791013
84.3254852132385
84.6662585340292
84.9516592720939
85.1759098190519
85.4447384129441
85.6978950343622
85.8676847933028
85.9787459202471
86.0883939698413
86.2512220559387
86.4151476175329
86.4953530134754
86.5458700885494
86.6120662087843
86.7632118559354
86.9026733033001
86.9910675774759
87.0315229838
86.8951891997445
86.3097819634335
85.5066378615856
85.1323028392416
85.4138260386398
85.9523899589342
86.4935059360116
87.0146106787104
87.4671067205907
87.8331134939651
88.1476944076684
88.5177513507738
88.86072701902
89.1259745347102
89.4990357209702
89.9162605818694
90.2743286115066
90.6166517379105
90.9259732033141
91.2124864445397
91.4914052942836
91.8823365629891
92.1984787190085
92.4563402666246
92.9102973083348
93.3261254629151
93.5804793474126
93.8149168950334
93.8199844520982
93.4838089430785
92.7283894685649
91.2387068966457
88.8646930552578
85.7945023190336
82.5638055271215
79.4486596348721
76.4612478610848
73.330728532915
69.9850706926257
67.1191069009116
65.348868976103
64.8926812317607
65.4806409146238
66.48160528818
67.5277575906666
68.6085201303925
69.6915936767455
70.5416242361153
71.1874751077055
71.9349575775017
72.7377214817317
73.3390888653524
74.0794451183789
74.9006522100565
75.668992183325
76.5343891252654
77.2263266930493
77.591171935789
78.1025673228064
78.4283189289888
78.6405201855951
79.0516465651396
79.4064917500437
79.6076029044832
79.834247666995
80.1124392713509
80.1771816770785
80.3392776150812
80.4122981178399
80.5688199743853
81.9603968756331
82.1659604560781
82.0203942171495
82.2198846633375
82.1541633285769
82.1669127889179
82.3885614667579
82.2925113823372
82.4395047191693
82.9148360444189
