1798
3999.43349933624
650.420452594757
1
128
4
96.340179879321
96.3320715485825
96.2688187788872
96.198208428824
96.2011770184171
96.2077743175767
96.203777633383
96.2217737988875
96.224693627814
96.2213421822689
96.1771855569041
96.1560672787111
96.1774091379476
96.1818210372782
96.1267183883054
96.1929492700809
96.2590059368167
96.2941201693248
96.2632040875195
96.177230760302
96.1423295850474
96.1631359042627
96.2319425500691
96.2519286349641
96.2611517885075
96.2835370721322
96.2209212297969
96.1957546805824
96.1937689545991
96.1609299819768
96.2325082463163
96.193811210961
96.2234244204175
96.3486572923167
96.2048804440492
96.042024693452
96.1556515351335
96.300293338174
96.2012128979344
96.2064210425756
96.2611246991867
96.2744354563775
96.1994967301819
96.159571004453
96.21218619553
96.2695732537495
96.3381294232157
96.322355474673
96.2377798825036
96.0908875507088
96.0658487650862
96.1500665148367
96.1506059803988
96.2617673291185
96.3734159039555
96.3320521707463
96.246527624193
96.257695493409
96.3365488301996
96.1204561193001
96.0774048176487
96.1561739514561
96.0954816793502
96.1838244574888
96.3321222941038
96.258841032228
96.3403015389503
96.2018253834764
95.9977810819117
96.2071010457342
96.2056550004535
96.2342643269592
96.2231044510762
96.3249349785603
96.3413841993127
96.3138851980251
96.1322406172812
95.916411318684
96.0281714711089
96.3635231176829
96.462115132027
96.4658847615952
96.379697121109
96.2501550854272
96.0935690310189
95.991616484061
96.1627758149519
96.4113547981233
96.3529879059179
96.2277032850337
96.2343634248984
96.3156153245316
96.4086105314623
96.3216294951627
96.0737621373935
96.1231365758076
96.1053611697307
96.0535634440577
96.2317232831775
96.402796119618
96.4162466061675
96.2482771096903
96.2220870176613
96.2220373587107
96.1460398695646
96.1997238701129
96.2339456749298
96.199034659011
96.2018525360149
96.2019209890178
96.2940756906269
96.2847665354041
96.2723774397655
96.2582153175988
96.2763210051382
96.2974037599381
96.1498575090546
96.1016590038222
96.2322994113631
96.3137237173627
96.2854481422691
96.1587636316623
96.1921040430132
96.2502198879439
96.189451331813
96.2625584870554
96.2453583387091
96.1983929795366
96.1274163426791
96.2331103838994
96.3325947623838
96.3436353575068
96.205839686312
96.1942773264275
96.3167634250983
96.1608858597504
96.2793224299603
96.2934952981533
96.4627786857114
96.3897653082964
96.2412532132311
96.0627682341684
96.0291987651686
96.2460769500538
96.3361232870744
96.3320070265025
96.2866229432685
96.2504158106051
96.2611775843764
96.2615209194375
96.3629591827974
96.3098560874699
96.2479758293543
96.1936048265835
96.1079378203433
96.1751611431745
96.2491880207451
96.2412364612568
96.2122577847079
96.2414858867586
96.2746203889706
96.2235602840976
96.2632462127644
96.4057765414202
96.4950285351308
96.198607016962
95.9652726917642
96.1402417407598
96.4056555211631
96.3389099117118
96.2583472051517
96.2195238070457
95.9602203318818
96.0121821111212
96.1907142445363
96.1639019787124
96.0717610945638
96.1678593568403
96.2901992985847
96.2873283081845
96.2749687630902
96.247367170446
96.0820001502636
95.9855616066387
96.1559671046329
96.2668698876522
96.1656127226498
95.8546731127442
95.9719317511087
96.1466432748184
96.1364267534943
96.1236986797559
96.1107107839521
96.1182932356571
96.0008204598604
95.9482439487713
95.9807708323885
95.9568995849499
95.9712004344762
95.9629724870209
96.099959408952
96.1138378326473
96.0730472756824
96.0546275599404
96.1429898022181
96.1332880908269
96.2042469668649
96.2465475787517
96.0762355255031
95.9744592458856
96.0666618214157
96.1233677482062
96.2446538670527
96.2784415485174
96.1913953569001
96.152223162161
96.0779209296106
96.1585443853995
96.277405786005
96.225738222122
96.1098573222211
96.151052094791
96.1569425873534
96.0960382791603
96.1799216105279
96.2154654413003
96.2917323605646
96.3383951960059
96.4140796588096
96.3754590457853
96.1287906256662
95.9882865467549
95.9947081676408
96.0428919048967
96.123402174543
96.1332016350196
96.1266948762292
96.2254400887802
96.1710130036073
96.0068707087992
96.1166744620486
96.2135539243457
96.1594157421392
96.0553341688294
95.9384425318067
95.9668301303869
96.0917081465649
96.1620259912886
96.2077758834687
96.1597607201023
96.1628138652125
96.1672367998819
96.1422925333755
96.1848516771721
96.1751553312856
96.0562037633649
96.0813691757904
96.2123392954953
96.3669125233728
96.4093302131129
96.2054332924032
96.0506031190356
96.1678683262484
96.2407370245732
96.1835211283569
96.1497678034534
96.2003043046269
96.068227632477
96.0405515301861
96.1916478458281
96.2995236764862
96.3297837059062
96.3212587968738
96.3766593225301
96.4157779028354
96.3778776351728
96.3454689243792
96.2715857724753
96.2265371949579
96.1699977044318
96.2382312807149
96.230395636427
96.0245219854582
95.9884039406829
96.157041649373
96.3134074152502
96.4389491527773
96.4539500025067
96.3206976639496
96.248804188619
96.3123878275542
96.2848070035483
96.1798226838914
96.2879500209061
96.3239370044663
96.0794852327499
95.9397392516819
95.9276949392646
95.9043402937154
95.9769239638229
95.9243650597945
95.8190363507035
95.8713211932011
95.9193666591499
95.918301153358
95.9372694399428
95.8581738272683
95.7709495657442
95.8348957408993
95.924842731841
95.9910273090307
95.9286228661009
95.8588799346178
95.9040411314996
96.0436623865005
96.0370455608481
95.9754671137637
95.9555492930102
95.8959030887542
95.9688452847542
96.0597205958158
96.0522134051116
96.0466411480977
96.1023430161843
96.176794660542
96.1494677657907
96.1679719951164
96.191965863355
96.219672165716
96.2567556090198
96.2984556800594
96.3308794848397
96.1902423449886
96.0569073827197
96.1731217482418
96.2195849311794
96.0500871910347
96.0220580348978
96.1223917189128
96.1402708963339
96.1679993386935
96.1450947592699
96.2032795562497
96.2535810328267
96.2119106901134
96.1867325481154
96.1740100798139
96.1109204665455
96.1096117887115
96.1771012915459
96.1808894545357
96.1093479292689
96.1258075485123
96.123032585949
96.0213294577193
96.0132239762747
96.0482145493558
96.0596068085359
96.066490628597
96.1031776899967
96.1829998194072
96.2527668065004
96.3036820623994
96.1580815294339
96.0739924503121
96.0958538081065
96.1324950737657
96.1443234211369
96.0963395786212
96.0426383435531
96.0971900910169
96.1526798123791
96.223045033434
96.2011678066418
96.1423583629266
96.165785960616
96.1642288697272
96.1458089586349
96.0910500422528
96.0802303179507
96.1196090270009
96.0586283494032
96.1075592047224
96.1216548219252
96.0644047353055
96.1013974581421
96.1599917762761
96.1622772061902
96.1553998148445
96.106540942551
96.1828563457684
96.2172996838577
96.1264331351651
96.1363495375911
96.15713057687
96.1305636190709
96.1498758449175
96.1986975176151
96.2487402335219
96.1970173492129
96.1551064634492
96.1445097534757
96.1473138491303
96.1761077121513
96.1707550795166
96.1231751765334
96.1288162370201
96.1621452963143
96.1840362217165
96.1659794012679
96.115153934813
96.0832510456119
96.086817208837
96.1353127985297
96.179918869625
96.1537438958927
96.1432079428919
96.0907698566384
96.1416205954564
96.2254167123843
96.163372973117
96.1020750453236
96.1908778651583
96.2424394444608
96.2305943527815
96.1295397062696
96.0740605175954
96.1091278099478
96.0924570136606
96.1078655165777
96.1560609715743
96.1273592911032
96.0793895733645
96.0983113793142
96.1044175144881
96.0880020198874
96.163607501127
96.2156011072734
96.1902456082391
96.0906552028318
96.0232477212576
96.1118084187767
96.2062072786556
96.1569103402962
96.1589919492855
96.1722481059018
96.1402845549034
96.1479340999853
96.1907125889462
96.1582615649933
96.1102963646986
96.0922866102863
96.1176520585341
96.1152677017968
96.1543334661435
96.1796402532027
96.1320888399209
96.129559270354
96.1642607218854
96.081133028948
96.0168216825848
96.0218525359207
96.0087179583383
96.0152687488224
96.0757844582683
96.030981984807
96.0073290063024
96.0871651713278
96.0898479151001
95.9868340847881
95.9189198958105
95.9508269990585
95.9834779333046
96.0162874892081
96.0015530493229
95.8960042317173
95.8139653204394
95.8399305856687
95.8925907981721
95.8866614725545
95.8369311302334
95.8088525021279
95.8629414698497
95.9106664432434
95.8958871143222
95.8364646803506
95.8035101388331
95.8518362325893
95.894106908279
95.8311183938215
95.7730388124648
95.7519953053753
95.7511120443846
95.8011636381165
95.8078031630933
95.7432692769812
95.7749192389614
95.7575897653456
95.6793210523903
95.6257707336901
95.6365347212569
95.6924014603418
95.7228438192899
95.683626720233
95.6938539187636
95.7491282789081
95.7040281764065
95.649994169075
95.6626468159049
95.6576540904023
95.7406069503188
95.8369407291527
95.8621416607389
95.908461395806
95.9306923659549
95.9775680458172
95.9514651145662
95.8777172396411
95.9020208959281
95.9418254419295
95.9588004507734
95.9731852505348
95.9727065334937
95.9142396587557
95.8315096266281
95.7496279351767
95.6952262269235
95.6238874266186
95.6073562347882
95.5936698929334
95.5787443565125
95.5603610151526
95.5010018319552
95.4564204969409
95.4445927125601
95.4212275013738
95.3317979083428
95.2997157668409
95.3366161582955
95.2745896238645
95.2118777691458
95.1784194542402
95.2291291167478
95.2775686566224
95.1660241576822
95.0010301406688
94.899602106755
94.7977255683159
94.6771571243503
94.567233450726
94.4973954814363
94.4152392563607
94.2943366345672
94.1793593136652
94.1716658740471
94.2213551746452
94.2432126922441
94.2730709855136
94.3238357074457
94.3947427636158
94.4629749868407
94.5457471602926
94.6647499888967
94.7069133661903
94.7623569524142
94.8515596199741
94.9611168489497
95.0764514344427
95.1717831057676
95.2425784675271
95.2923528440162
95.3278719885211
95.348662472005
95.4037480100242
95.4804765824286
95.4670908212939
95.4194599098721
95.402836661997
95.3818444327211
95.3543833070365
95.3550047382442
95.338501193124
95.2794962287027
95.2167234308085
95.1290369330413
95.0669470904948
95.0484219216611
95.0217732177398
95.0927991765533
95.2099320776599
95.1981904257806
95.1642293638834
95.2146499147841
95.2759646137048
95.2808594109158
95.2676888917593
95.2933570454517
95.2931235431754
95.2754193697981
95.3023717000697
95.3706226074642
95.3736814324198
95.3607534506441
95.3862832437001
95.4341185727714
95.4892096753988
95.4858975935935
95.4612327266142
95.4697113483817
95.5063994910942
95.5078585745062
95.4876354726202
95.4751977328621
95.485738534104
95.4949861976547
95.5073254601945
95.5536061480954
95.599294436087
95.6270185254537
95.6335116121944
95.6614722704568
95.7136671498324
95.7310029242924
95.703273575405
95.7227911586898
95.7682802286239
95.7659187619202
95.753185496598
95.7960840628255
95.8341865400914
95.8110554991635
95.778934069316
95.8180159708007
95.8445541172866
95.796477228356
95.7332779632505
95.7132875130508
95.7302488848059
95.7601906365235
95.8140475655447
95.8324034032052
95.7784892540876
95.7389734492925
95.7862382985508
95.8310857080326
95.8012881153424
95.8235096062544
95.8684175925505
95.8579403171826
95.8287700336475
95.8762190228596
95.8994479513106
95.898944081479
95.9027795963736
95.8750911828322
95.8391421800903
95.8539899958587
95.8636843092043
95.9004144427757
95.9152297218382
95.873011217342
95.8955473686107
95.932004568356
95.9084823148004
95.8820795817633
95.8730005619839
95.8872061882938
95.8891725587381
95.8914569693762
95.9041656754012
95.9197470271308
95.9134066062174
95.8857205373081
95.8750699738923
95.8876440013601
95.9282464383843
95.9379881596686
95.8904047654058
95.9014540712972
95.921418840751
95.9110724908331
95.9207302379771
95.9282632951933
95.9367245783484
95.9329366752363
95.9273131541623
95.9754231507708
95.9964686275996
95.9603345365087
95.9481066836398
95.9797932615819
96.0062869109244
96.0045539624473
95.9941895095006
95.9907372045557
95.9533340409506
95.9434021301897
95.9851614656156
96.0216665759076
96.03538241562
96.0220405775388
96.0088965924435
96.0155419473681
96.0349584776745
96.029364523873
95.9965243701584
95.9985875899835
96.012798528985
96.0089364007926
95.9833260456684
95.9789457658862
95.9955377551508
95.9845670782573
95.9898990994959
96.020927589222
96.0009759073712
95.9469021761071
95.9481185193039
95.9695962631438
95.9442583056328
95.9437709579398
95.9707182695185
95.9585737758912
95.9270860972506
95.9050090686502
95.9059575444045
95.9069584763238
95.8944613393811
95.9074530445154
95.9623644354786
95.978649080725
95.9586059805758
95.9491575107755
95.9929191175438
96.0101630480816
95.9553253133717
95.9695092443644
95.9861016244181
95.9334785045106
95.9521709271587
96.0163547517907
96.0283857969707
96.0168549715322
95.9907844982574
95.9932342753442
96.0584241856472
96.0912819020937
96.0872661437711
96.0707470757076
96.0465051384262
96.0663195256001
96.1261565790045
96.1488304526083
96.0692605689264
96.0260921962335
96.0945604550588
96.1234713835537
96.1205704028402
96.1315175985905
96.0896763745203
96.0931844171741
96.141234367222
96.0727633409592
96.0115943158503
96.1170353242694
96.1959408567614
96.1389259162502
96.0921982794008
96.0691518279154
96.0925476178627
96.1933473429625
96.2480034050134
96.2429204119699
96.1855709088376
96.1994166387115
96.2529313593552
96.2307066285587
96.1887985927822
96.1793105692258
96.1866641808336
96.1940633811038
96.1975229054639
96.2104454379534
96.1958597881695
96.193281778414
96.209376438672
96.1967618591747
96.158859152941
96.160487161334
96.2416813352041
96.2156546784933
96.1572350755703
96.174745801018
96.2177235946067
96.239617339133
96.1830761199202
96.1174882232336
96.1386839847057
96.2178877651586
96.2605995830555
96.247105454766
96.290128059772
96.3323661288206
96.2458007060752
96.1702615282181
96.2109340106218
96.2536376663032
96.2250318298956
96.2073177232178
96.2689492499481
96.2849301678307
96.2298711452956
96.2353810354973
96.2965340503412
96.3341481180833
96.3417547970867
96.3102101123387
96.2455685454326
96.2101398683722
96.2582914322596
96.3402060803071
96.3755383909992
96.355402417778
96.2588710575022
96.2388972546713
96.4000162551048
96.4631831179443
96.3590706137289
96.3133995873454
96.3794721532424
96.3946774292162
96.2841503483454
96.2141411100122
96.2821926582528
96.3873329112582
96.3948174949546
96.3500131420671
96.3021425903611
96.2934876839974
96.3620573371131
96.3551709140771
96.2557966487963
96.2926682824458
96.337099928262
96.2497407308021
96.2730878449868
96.3200671280979
96.2947349089822
96.291167522499
96.2738497650714
96.2804574411521
96.3696258366329
96.3901826242524
96.286509364739
96.2613527293472
96.3271286159591
96.358490435797
96.3611780663498
96.340505883551
96.2786492391758
96.2279295210699
96.2426488995763
96.2582758686921
96.2384404104851
96.244068117553
96.2679552451939
96.2661687330002
96.2576374273827
96.2589285836832
96.273527485196
96.3040080051174
96.3477123855488
96.2979884613753
96.2002382294933
96.2224242397813
96.3937634520423
96.4675810620327
96.4060074277795
96.4055906336864
96.3951508079688
96.371740892861
96.3595639283521
96.3252845368383
96.322855523961
96.3453743545774
96.3843419384459
96.3454274247769
96.2433698039087
96.2547984910893
96.3378285602367
96.4104696410172
96.4527314135188
96.4469522271417
96.4207487379439
96.3812101133183
96.3490528447395
96.3408144238266
96.3421328712367
96.1963779055379
96.052828433204
96.0748249787511
96.1029958438428
96.1780629002275
96.2944647281852
96.3052818236098
96.283489911449
96.3402474197281
96.3727672412325
96.365691157024
96.3828964472661
96.4272641331067
96.4093924526953
96.3291461242903
96.2585241309956
96.2937873987311
96.3284657403347
96.2850448071403
96.2521174785723
96.2493521672907
96.3257559473165
96.391243119934
96.3414672657337
96.2701061978339
96.3239982715082
96.4606579695327
96.4820681443478
96.514872197919
96.6583933955014
96.738089351145
96.7130233452883
96.7778445900581
96.8609068366282
96.7892974095942
96.7204992454771
96.7402711357695
96.7535100601766
96.7778521671858
96.9300919047561
96.9502157566987
96.7947477328326
96.8631059908245
96.8579456848351
96.7219597597217
96.7535538153663
96.8089705696409
96.8688647168897
96.9203281753284
96.8874797859767
96.9938123816276
97.225080809705
97.1312387094799
96.9252651455138
96.895960124733
96.9455855521673
97.0446659673329
97.1534920446569
97.1778017613325
97.16210140726
97.2042324899223
97.2360948503469
97.2386512368165
97.3213129398635
97.3404632235928
97.2356545287084
97.1456480380029
97.094638052677
97.1727007966479
97.3199318778194
97.5235979481762
97.5832178115511
97.4870390715122
97.4004235169018
97.3518317850588
97.3337305483754
97.3271207791488
97.5999953845751
97.8007863469969
97.6372640989883
97.5555020568973
97.528148956664
97.5927425298048
97.3814555387683
96.7885936540268
96.8402894863608
97.5435430158361
97.8169220862006
97.693514044025
97.7520720207029
97.993194329927
98.1647978905908
98.0254540997329
97.8215082682039
97.570949909019
97.3623214557946
97.388561944355
97.3619408473036
97.2003592426433
97.2757349994033
97.4382573093239
97.4886963642828
97.3476241615833
97.2357917235085
97.3181836686653
97.2792936116682
97.1575505569906
97.10794409885
97.0738368842019
96.9927804571381
96.8586550892199
96.8174156066425
96.8188424304305
96.8213575595578
96.7595828897252
96.6332227727673
96.6452252033748
96.7371963667801
96.8326874382885
96.8846047330656
96.8452093199177
96.7921014860701
96.7648049356475
96.8105787597016
97.016138761362
97.1489410278516
97.1017372374989
97.0402728720136
96.9206384181318
96.7845767914574
96.8178363511592
96.9802983307406
96.9859690175298
96.9332736282435
96.9483486806025
97.0162139957231
97.026057912356
97.0610613308606
97.1134357617088
97.0685357933304
97.0611615531237
97.1169710680685
97.1122922865364
97.1233435465731
97.1688748062235
97.2897982834967
97.4154659543232
97.4599858619303
97.4111725503575
97.5955939248325
97.7282949213752
97.5729111172941
97.6606498156474
97.9111293601716
98.0477634187153
97.9966176199386
97.9378563139351
98.046656572891
98.0312166961948
97.7802242087913
97.5115719007828
97.5159431264346
97.482286741288
97.4021405900213
97.4670361645561
97.6834111107353
97.7619449462444
97.6788654706376
97.706856268865
97.770379919087
97.7320630083051
97.8618993879163
97.8449733970884
97.5974051135058
97.7432961721058
98.0280425941154
97.8144527167787
97.4824465038485
97.2633951231121
97.4229232152635
97.8121867532017
97.6219500078695
97.2173717788083
97.2426090196382
97.4178217555957
97.5785447017762
97.7207448146498
97.6854601202056
97.7894912433502
98.0320060157809
97.9244658434939
97.892670699302
97.8055168523718
97.6517844709726
97.6392754221102
97.475187781201
97.2702093367723
97.1558784365344
97.1115466624761
97.1875689261343
97.1703772100342
97.0921144134764
97.2259953560302
97.3624144170192
97.2246524683087
97.1253770898511
97.1362343884604
97.1742615385181
97.2315075771907
97.2137417401684
97.0757257793337
97.1402264990964
97.2809331137912
97.3242013128741
97.2883333234993
97.2493452789724
97.1557055533691
97.1758973247516
97.2314910739711
97.2357939528533
97.3300565222625
97.4076859094032
97.465446953362
97.5223774632175
97.4815400175612
97.4140780877334
97.3713088769542
97.3926878105498
97.4319854909813
97.4825926739788
97.4799506611589
97.4313915625572
97.4992138678229
97.5460926719554
97.4850979875159
97.5135904260845
97.5243944194056
97.4982712572446
97.4516260449839
97.487322334809
97.4914717872031
97.5558122582855
97.6157970001744
97.5578390443871
97.5469287896673
97.5180709986831
97.4963568683636
97.5731783680654
97.5717825609069
97.5465531345129
97.5035690215101
97.4712523279227
97.4556385342323
97.4506788487669
97.4671448559279
97.5403061345694
97.4884349777612
97.4434744667583
97.3290297150069
97.3050141374419
97.3398052074932
97.3275447960704
97.3362449083654
97.3685078793869
97.3134638429332
97.2464023171026
97.199205364818
97.2652310557971
97.1982933532948
97.1877597223459
97.2335829423418
97.210883614855
97.2277441785515
97.2933782473881
97.3424411854312
97.3382248444435
97.2633861982725
97.2450961619467
97.3072223835484
97.3572311790655
97.3303991841579
97.3090556717183
97.310006496268
97.324663998609
97.3485572197207
97.3726387552071
97.3307382243231
97.4360634405842
97.5188823638149
97.4898459714465
97.4526060562513
97.5248734231817
97.5672839787317
97.5649894044624
97.55335629933
97.5579057701135
97.618523067976
97.5015260192102
97.5124682554256
97.487561281299
97.5002090993583
97.5219056159518
97.4704063053243
97.4094472445469
97.4062664378127
97.2528382070641
97.1148704767276
97.0076631579296
96.6760953025386
96.182528635777
95.5172239909819
94.70629440489
93.611655427467
92.4228235979555
91.0602823564366
89.4330699939052
88.300695593314
86.7673007483636
84.8366232352279
83.4357748254556
82.0627835994033
80.7680830114117
79.5008242802104
78.147340706868
76.8685539331214
75.6818284897105
74.0773805679804
72.607513371222
71.8050331936056
71.5461209233189
71.6250077131295
71.943314649949
72.5287446165844
73.5448491924402
74.3226380679548
75.1494895822369
76.9484322856729
77.8806457485771
79.0506376706883
80.481744346995
81.0246054904444
81.6520692673282
82.2546191437923
82.2925294783405
82.6105235449815
84.1452495221143
84.6606891262862
84.8668901492184
84.9497325241227
85.5084329480268
86.3932540714928
86.5036602523071
86.8894869986288
87.8808188636496
88.2154768067736
88.1899794854128
88.6940831999286
89.3672007885745
89.6253079933467
89.4636486480609
88.7488959086387
89.6900620728779
91.2439243332639
90.9187681061782
90.4869594558723
91.2052401773924
91.6476567479051
91.6039689848926
91.5086912085154
91.3205144204956
91.3285964736541
92.2100158811521
92.5183739313128
92.3611766204089
92.2667482841006
92.4026485049029
92.4701484635624
92.6433841842958
92.9242633706078
92.7500502537395
92.4018102232803
92.6195341649416
92.8408580727001
92.7316639589583
92.7656074069524
92.9402646941703
93.1648577207416
93.2967332041778
93.4560380638773
93.6543978402828
93.8083114928071
93.9053626549472
94.042773504152
94.1424566405565
94.1665403689382
94.1481806164796
94.1051755859671
93.9709890707893
93.7601984608065
93.4225137221615
93.0130052800227
92.6211268121008
92.5922416718213
93.2863306392112
93.5853639826012
93.5354364512731
93.8532872781347
94.3221220851867
94.4083114457588
94.4920409026871
94.2996143023615
93.787838442561
94.6040936723674
95.1017100422983
94.9832691508802
94.9960231898108
94.9358620430074
95.095970699043
95.1497903170335
95.0646430072565
95.0064774188536
94.870285995557
95.1958218827614
95.5585699755198
95.4310725052635
95.1907358298019
95.3734090575854
95.3807502619426
95.2320179419445
95.1471900720813
95.21012474921
95.132403342753
95.2923303984476
95.5238838686981
95.4743874451993
95.5924008724283
95.4988764312031
95.1518234451015
94.5381479238498
93.24347244053
92.2461027087367
92.5193750010888
93.0931300859276
93.7961949781472
94.4666565546426
95.0761683452209
95.5367383114993
95.6646901576208
95.5358298734589
95.5477326929404
95.5647354296521
95.4796656511164
95.2728708947902
94.9995698454017
94.8158317663738
94.5127451176923
94.0888931197002
93.6398236020331
93.1764838709275
93.2788023965273
93.4592775791354
93.5907480153104
93.722265173653
93.8706567179661
93.708646445141
93.3912551393143
93.0888814138223
93.2416712028298
93.2538522215871
93.2187496196788
93.2553334524672
93.3369835499192
93.5386546810781
93.6680137136263
93.7444216341875
93.8289483272651
93.862847364772
94.0099933597558
94.4908304837623
94.7631554474075
94.9701811127712
95.2593583219867
95.5591868570936
95.680594904224
95.6600877128945
95.5937644283154
95.1934367047641
94.3785697401778
93.201475799112
91.4831974312857
89.410064421792
87.5130957108891
86.5567795106824
86.6234462690448
87.6519764990427
89.1037837759256
90.2061733635884
91.0733586678916
91.9125374341762
92.4147513188508
92.8475525844278
93.1679117284818
93.2601593901004
93.225991398797
93.2757951293672
93.3842637591662
93.437743809744
93.5085306650024
93.5136627201317
93.5003406937526
93.3705863125503
93.224719555765
93.165637258687
93.1637489524947
93.3734827422454
93.7376619006897
94.0843624342729
94.4729833066625
94.7980061255202
94.9555015983505
94.9908670306037
94.8931080128966
94.6493169207767
94.1460576369199
93.2405338247892
91.8425793044025
89.9141720593289
87.7986268977962
86.0345597104699
85.1832117018902
85.7228832125737
87.2961914008971
89.2988990691103
91.2176101953478
92.7434110552746
93.7341010360693
94.2922341947313
94.5569701406785
94.6193522364106
94.5378111701099
94.3893089372312
94.2298632190315
94.0399983346924
93.7932765448522
93.4987853775265
93.1785096159112
92.8333847885925
92.4946616251334
92.1535712721631
91.7426042726328
91.204365284912
90.5854401541466
89.8657583640956
89.0527658115868
88.2330303571476
87.4296276003471
86.6821785395644
85.9593033079562
85.2326543067682
84.4878281191197
83.7131780007629
82.9367361508515
82.1664355480625
81.3936984793695
80.6349501981226
79.8792007507446
79.1146098855454
78.3023167172732
77.4578624949282
76.6420885432624
75.8991207335769
75.227357697469
74.6524681963916
74.185289895748
73.7634991373365
73.3203277836078
72.8334635800951
72.2951369201404
71.7478291062132
71.2293611182059
70.7440872412315
70.3343595124054
70.0423609025912
69.8882488766522
69.9088318985326
70.0866767206289
70.4219482252999
70.8767687966606
71.389512459855
71.9297284392722
72.4837831386689
73.0265083162923
73.5805572378892
74.187819021836
74.8704314830828
75.6269646718767
76.4226054566953
77.2027167450052
77.9701544729505
78.7035923967335
79.4149242328126
80.1267715084252
80.8316697091538
81.5381452619483
82.2482107284289
82.9733914376134
83.6888340322784
84.3581902696796
85.0050650454884
85.607080586747
86.1400430370543
86.6177946048981
87.0135808738044
87.3010950171928
87.4776054821794
87.5621221669783
87.6194987359403
87.6891783121939
87.8470071745867
88.1955111024586
88.7260248060209
89.329237475254
89.9062214541246
90.3719824595693
90.6905195592507
90.9076109921744
91.061683145286
91.1442937465064
91.1263162970819
91.0147240591054
90.8197929022562
90.5305147995235
90.1412905068757
89.6538794676231
89.0510088617363
88.308790301555
87.4075885406168
86.2999660250161
84.9661641005168
83.4653797780335
81.9505401358996
80.5423842603713
79.3153002781218
78.287143879759
77.428239134019
76.7050519377031
76.0998461090193
75.6657610255061
75.4446098114689
75.421884988396
75.4992053187387
75.5079549814893
75.3896505473802
75.1291219785882
74.6554068211846
74.0023048303713
73.3016331262864
72.6292740100684
72.0402028560145
71.5547074872138
71.1871438535963
70.9456937779597
70.8194719651867
70.7733151207524
70.8088902557777
70.8969502477474
71.0219318422418
71.2232287034229
71.5592901490021
72.0222548098506
72.5695139772522
73.1997869672435
73.8956670477777
74.6026860333261
75.3010443628476
75.9859683487527
76.6438030534924
77.2728873590479
77.8800544909129
78.4501614841051
78.9525949756994
79.3687158452134
79.7035336512796
79.9493003064109
80.0911025976268
80.181255082787
80.2256271846508
80.2538853887131
80.3453666026337
80.4879734920397
80.6971559000956
81.0124405122071
81.3987932888834
81.8620656415021
82.3884243478079
82.8981597682223
83.1193233244698
82.4268977540235
80.6365295746861
78.5373171891223
76.7841035845643
75.2323229570063
74.0128232133347
73.7152720810081
74.5051183167155
75.8498925625095
77.1569541148471
78.2457690438387
79.1324610766894
79.826068719885
80.3817147130134
80.8657830500294
81.294314506725
81.6736237008644
82.0026897855766
82.264741687055
82.4610738553528
82.5834065484942
82.7102300636317
82.867772616865
83.0097895186699
83.0864135169513
83.0149565925588
82.763787627973
82.3720004587584
81.8633331117128
81.3629938189611
81.0446260120455
81.0122289750822
81.1886928298511
81.4922402734213
81.8577618562125
82.2398668943598
82.6202589148364
83.0065092988931
83.3253316693507
83.6157985219234
83.9003775518634
84.1408300057332
84.3455892991121
84.5462278868301
84.7334823502177
84.9101802030015
85.0982364308936
85.269299647618
85.3997476746252
85.5235640354161
85.6611480767099
85.8059790778247
85.9388158883595
86.1043598467808
86.2708874821008
86.4026864752591
86.5608955634816
86.7326013682058
86.8194876953068
86.8900837347579
86.9920333774923
87.0690337200751
87.093245092401
87.0364915001207
86.8966090292939
86.7457662722346
86.6218711986506
86.4732286542405
86.3489535098704
86.2666993850432
86.3187896488659
86.4616294650538
86.5935276013399
86.7199408028343
86.8086645171101
86.7915696944561
86.6888141375055
86.4269679783288
85.9574596929024
85.2665568646581
84.3911499064913
83.1794046331804
81.2456453347218
79.2700218857619
78.9426906154056
80.1422707813723
81.4413585830791
82.3165002000277
82.8595101916193
83.2212356025347
83.4727452658163
83.5970822750891
83.5564575305926
83.4461149656871
83.2637221759417
82.9112467187618
82.5326585343349
82.368422273736
82.4648819101753
82.7643636535445
83.1105201897795
83.4147893007883
83.7232982041973
84.0299648891438
84.4170809331963
84.7838734142817
85.0341879378481
85.2780112604154
85.5166546882846
85.7546669483447
85.9919332843199
86.1817179014347
86.3421597766133
86.4285416884624
86.4895135134267
86.6001371538147
86.7544512830733
86.9114486495774
86.9838555761251
87.0753930820728
87.0871663213566
87.1494423712103
87.3315658563892
87.2451814311996
86.6882668639186
85.9462900590096
85.5726161063971
85.8132064277248
86.3360764459017
86.8694562421176
87.345456723842
87.7076652333295
88.0844671730667
88.3865255562672
88.6330955884218
88.9702074713293
89.3267693520382
89.6292760606995
89.9518679357138
90.2419574275795
90.5211659196263
90.888155832781
91.2627949843894
91.5449761440269
91.8334524744378
92.2597022029933
92.6777687957026
92.9478955380093
93.288529354214
93.6327609176089
93.8037512101922
93.7643329215279
93.5144168173774
92.7732880861571
91.2843874076483
88.9244220530011
86.0555310423956
83.198967847934
80.3303542439379
77.3504955197629
74.2531018355418
71.0186056504209
68.2308105180336
66.5840522637849
66.2461510991948
66.8513905070017
67.6974021374811
68.6002630835703
69.5390939322482
70.4898833466113
71.4715644877992
72.2935963861948
73.0458487134093
73.7494562438786
74.2432387281087
74.9299660388959
75.7268537896363
76.4867182446139
77.0700785730212
77.7806216641601
78.5319162773112
78.9505536981615
79.2048188792729
79.5418495076365
79.7941121684704
79.9861977274787
80.2648539430334
80.4666495899603
80.7052071169336
81.0319636694918
81.1831262420378
81.4264073113847
81.8571797798981
82.3369364460348
82.3281185564765
82.4301601718136
82.7872161769395
82.9069885491232
83.1250733763618
83.2755760708765
83.1021748058603
83.5159276689443
83.915971432604
