1798
3999.43349933624
650.420452594757
1
128
4
98.6865447970526
98.6234525661264
98.5772064527803
98.5677591415927
98.5864970574922
98.61927359219
98.5960457698549
98.5900712675829
98.636588291678
98.6396980999004
98.5784183116855
98.5650559781213
98.5892461037578
98.6333185851547
98.6107538580541
98.5827303561505
98.6156757365157
98.6726250831862
98.6071030820653
98.5423223258282
98.5567474597924
98.5278888939879
98.5398595636594
98.6062392479852
98.6086175365388
98.6336210358149
98.6201648562345
98.5787629703075
98.5135819202794
98.5410187157181
98.6574989527802
98.6835003452132
98.6841781073859
98.661752213563
98.502032404878
98.3757265346267
98.4541948097504
98.6490419482567
98.557685656215
98.5904111991689
98.5445224091096
98.4918125870652
98.379630156829
98.3963260722396
98.4926116223914
98.5760943572592
98.69209329944
98.7175164872604
98.5735735181336
98.3453914609583
98.3450581700134
98.3238877435346
98.3495133021705
98.5151679405236
98.6626874394584
98.6941845415734
98.5036533850622
98.5075567851628
98.5013858421292
98.3951828330186
98.5909896835493
98.416746367965
98.2803906376652
98.4692443012331
98.5912055254782
98.4971312990694
98.6605438572874
98.357223662711
98.3081670753265
98.4016338783506
98.2467131254889
98.484070231899
98.3709248502908
98.5558948784319
98.5419723613104
98.5420486250866
98.3150721154077
98.3129011690085
98.0601718080834
98.3756177061953
98.7096863883036
98.7443906473674
98.5549937882526
98.3761079083157
98.2291965289298
98.2128557787771
98.3065375398217
98.5801662148475
98.5628466412292
98.5776392928992
98.405141634
98.5839860956027
98.7119778104886
98.4585165126912
98.327435166949
98.3395410595059
98.1363636715381
98.5245974776926
98.5677542355474
98.5595085377722
98.6753371469797
98.533283215285
98.5865250598792
98.3970128747112
98.1805308605349
98.549208109768
98.4605076829908
98.458577911745
98.5853308659695
98.5295327575098
98.637722719884
98.6614149252155
98.6724855710543
98.6432793219996
98.5967095056436
98.6093353097431
98.5566206423317
98.6104471750732
98.4913099991684
98.5819379221287
98.6474535529385
98.5047887913669
98.495781193545
98.5010267282626
98.6243731959171
98.6779143168111
98.527436520716
98.6295401265407
98.3938839205568
98.405198204862
98.4243202713005
98.5849921318506
98.2923955909712
98.3372983640311
98.2747155950696
98.2719878542641
98.4824908350983
98.1242885547958
98.5604983073401
98.4416216198
98.2908978678103
97.8951986933874
98.0477881976768
98.3822661111996
98.3726707825657
98.4492988944189
98.337443765249
98.2465100297431
98.4080992970056
98.4249248689149
98.6149716806413
98.5251168921645
98.6018579363698
98.6688411357303
98.524246978426
98.4849133428801
98.6130819509599
98.6176928935652
98.5590464791935
98.5484260118015
98.5132276481728
98.5420832514578
98.6365961564589
98.6695657802291
98.6856811580038
98.4315562579744
98.4522420897696
98.4656953079546
98.7096087012463
98.6267551597794
98.6569562405842
98.4975160502388
98.1751968443709
98.3119610998
98.1965702803509
98.3304433867092
98.3498129423207
98.4483382651144
98.6622582597438
98.6801942471978
98.6041650891487
98.6020772546496
98.3941135371212
98.3917837760742
98.3606139732208
98.3659441660874
98.3667397260586
97.8144664226435
97.9164616662199
98.2120674392178
98.3985020593415
98.4667106205977
98.5013519339975
98.5448717845624
98.3854952280951
98.3895619550874
98.1825162684883
98.1385598878681
98.2446022840647
98.2144077714012
98.4882853537328
98.4519686392088
98.4006780994357
98.2484090116995
98.2195725380678
98.1479762648707
98.3209992732557
98.4351203909667
98.4268607524251
98.3869038965409
98.5102585545373
98.6100489524493
98.6625255529162
98.5956842205606
98.4273773077287
98.4254154803309
98.4784579618306
98.5367576312264
98.6195435464934
98.5723603940821
98.3582574741597
98.3644586246399
98.567490289759
98.5425715277403
98.5650604096072
98.5966541552622
98.6690053745287
98.6646664098412
98.751361087304
98.676996485248
98.4301060341832
98.271293957548
98.3221163582366
98.5672405170619
98.745263863937
98.6154000789486
98.480141538395
98.5142175023853
98.4340218366152
98.3744636885732
98.4880056403664
98.601140188119
98.5066480255838
98.4539333145826
98.5098174668963
98.6240989311556
98.6221090596645
98.5860955180911
98.6151335414461
98.6692772382658
98.7358415559988
98.62433612277
98.5270498726894
98.5202547818446
98.5583569083817
98.4323580342614
98.4904168434681
98.6976917974368
98.8752780779213
98.9408025354456
98.7376614625673
98.5961635736914
98.7602469093301
98.8060136910373
98.675457391815
98.58826367978
98.7053119851278
98.7175505349356
98.6160254915109
98.666897395315
98.8311697330061
98.8162719417069
98.7698506925346
98.8938502552059
98.9552199138706
98.7982183374504
98.7497478120587
98.7266926186159
98.704552273823
98.6327437079669
98.7579171355731
98.876416477336
98.795030138418
98.772838847802
98.8762616419631
98.9550465366929
98.9654337409384
98.9729426562513
98.9573462826771
98.8977186129758
98.8460240655772
98.7871014182434
98.837529990283
98.9505841071247
98.8572041252433
98.6553115678342
98.5901303748374
98.5863783447297
98.6126665428302
98.6154450216569
98.5666412329024
98.4098932949213
98.4662595434439
98.5199660828156
98.4488731912326
98.4308655300526
98.4325237149481
98.4383781624285
98.4853390434773
98.5355819065016
98.5351356354417
98.5558042263716
98.5779522629269
98.5375575912022
98.6379442858734
98.6145343266451
98.6071142037394
98.5528007987837
98.539559939331
98.6675870681216
98.7162749795843
98.6682858336897
98.6522496029171
98.6640204169157
98.8215297634312
98.8176224574528
98.8061146803946
98.7674139333076
98.7420992171221
98.8039758547544
98.8602782872408
98.8824881752496
98.829445022456
98.6684412046147
98.7504591642616
98.8843344410864
98.8191276550608
98.7266746180637
98.7077422537201
98.7881713285454
98.8164925319539
98.7806127044669
98.921889142202
98.9638821054263
98.845179508147
98.7783421098994
98.7406583547236
98.6349179847612
98.6800278892772
98.846131270305
98.8563432395826
98.659283572804
98.6752989942123
98.7621932242445
98.7143375522328
98.6361733910449
98.6659863410529
98.689119696975
98.6246045386734
98.6511689772833
98.7743724549994
98.8227645650306
98.9054821712557
98.8175918097844
98.7436646220046
98.7938811075391
98.8086150112527
98.8080075492211
98.7522691634178
98.6665023624024
98.6167732814853
98.6437920683144
98.7511263999472
98.700564559114
98.6213936037208
98.6807053075346
98.7411590612246
98.7129278985982
98.6013404861644
98.5953832059958
98.6856336397645
98.669806180935
98.7266577206798
98.7921150606802
98.7672993241891
98.7304366751521
98.6718801552198
98.6233075452907
98.5831598718409
98.5995814193393
98.8067923313092
98.7877125750731
98.7027395246592
98.6911482998132
98.6915006759033
98.7852105061512
98.816281936684
98.7892327852432
98.8158231892584
98.7416558558015
98.6788290060052
98.6566796613292
98.6850405622397
98.7317471649956
98.7156635494974
98.680655224567
98.7100731924649
98.678469468469
98.657974479921
98.6687264765915
98.646373985513
98.6680482938631
98.65650627003
98.6633939094026
98.7357804607952
98.7591319466574
98.7224015415089
98.6588102688765
98.6285660542346
98.6910811154844
98.6792297288864
98.621577549028
98.6822341289616
98.6287726677446
98.6053554667762
98.6648524346572
98.7241793133462
98.7234084977648
98.6689837030395
98.6409821327063
98.7017523601588
98.7017093936248
98.6556467935094
98.6379296148178
98.6589541840013
98.696628291323
98.7070514065656
98.7325733844317
98.730462969446
98.7083832557766
98.6762098086598
98.6759405404212
98.6848481768886
98.6890162260025
98.71703731631
98.7224215703232
98.7159346063113
98.7322411777797
98.7614917885074
98.7308004751433
98.6557298180903
98.6407210448392
98.7507583131445
98.7482650199636
98.7685244059162
98.7789312504625
98.667463186619
98.6328326641301
98.6590510009396
98.5750993160155
98.5412053304213
98.5668458677609
98.5862958383138
98.5757908856755
98.5775178303048
98.5645432272467
98.5855813995354
98.6365156940323
98.6462319350853
98.6001013416908
98.576892172974
98.5915185831022
98.6137743652654
98.6580033178777
98.5919826981124
98.4860617413911
98.4611957455858
98.4587890268364
98.4922546850354
98.4911991574289
98.4482399338561
98.4353572167436
98.4658653846312
98.4762755136191
98.4513858349325
98.4114800216594
98.4442323633111
98.5251342191945
98.5286436231226
98.4190779901216
98.4078212425438
98.4209449347794
98.3686199532488
98.3630362791053
98.3487637932864
98.2907195311933
98.3239426717855
98.3565802631677
98.3461597059381
98.2891745425417
98.2733286457841
98.2947783313046
98.3161305718005
98.2840190125268
98.2899420418965
98.3453804900323
98.2965115804952
98.2414165822317
98.3062205362152
98.3056382892775
98.3088790723473
98.3809298721442
98.3930650838693
98.4322152700676
98.5254172485024
98.5864075789281
98.5590966261056
98.5309775750855
98.5372660836007
98.5064491809328
98.4923079844511
98.5279138274522
98.5441740824409
98.4665990230986
98.4032121735228
98.4313276415898
98.4035445143856
98.2749356044853
98.2463653833943
98.2219984840558
98.191974419554
98.1925805997651
98.1744957096915
98.1441324796421
98.1003568535915
98.0614782267745
98.0138444008738
97.9818454755154
97.9941958279314
97.9532083544644
97.9232893870251
97.9327617612533
97.9783996701814
97.9294637535744
97.7834316113111
97.7159001569313
97.6623097232997
97.5999785078281
97.5483738406902
97.4314364724618
97.3167349296
97.2298360506079
97.130675470042
97.0342674369716
97.036232385548
97.0857628568939
97.063736520819
97.0770223059391
97.1015674450624
97.1081388641653
97.2145328590009
97.3096108749562
97.3566075895802
97.4070887687341
97.4994223195638
97.5735637293036
97.6984322555794
97.7968308144859
97.8597985759456
97.940132671313
97.9824938747613
98.0427314685532
98.1093342566407
98.1025420062544
98.1160408431602
98.1298644681928
98.1730743413998
98.1812156163612
98.1364115441156
98.1159251462562
98.1294167422383
98.1115608074037
98.0586296086278
98.0018949384304
97.9203145053196
97.8241344780703
97.7407863937096
97.7028099631599
97.7523756355372
97.8109917797645
97.8293683717372
97.8509871414821
97.9104356962224
97.9677011863729
97.9698485199258
97.9694452250354
97.9859586298287
97.9734421937415
97.9510186305053
97.9416779512644
98.0139083162619
98.0539400282143
98.0266780390634
98.0124551163431
98.0451579317016
98.0910178820429
98.1147852016678
98.1426065211809
98.1705271725984
98.1233546329407
98.0770463412493
98.1178499205466
98.1531189613517
98.1187822058178
98.1330946661155
98.1956535569015
98.207737700945
98.1884833439296
98.2082962751108
98.2574793888414
98.2711657351592
98.2548503478587
98.2633500652477
98.3036229405057
98.3427513928557
98.3232662066541
98.3001848416477
98.3122633279439
98.3414176556729
98.368558105028
98.3720949853983
98.3454364035693
98.3779413527233
98.4315756118527
98.4190970094293
98.3675872690696
98.3394154182741
98.342900487717
98.3632037335006
98.3505505491802
98.3189546379401
98.3177967317065
98.3360771775027
98.3356384248745
98.3517719286986
98.341903284478
98.3846164279839
98.4071303745386
98.3867968388056
98.3990555736541
98.4392084707312
98.4628234296496
98.4561133056156
98.4281711901349
98.4028397942087
98.4077895025849
98.4599477192306
98.4755665844647
98.4579957377281
98.4288868214655
98.4280241498201
98.4773368691847
98.4916817254709
98.442755928045
98.4108631027673
98.4405864855949
98.4657721530945
98.4416984448638
98.4419483542132
98.4566441533453
98.4783261714326
98.45601340998
98.4293402158086
98.4577876204082
98.4584882271777
98.4294829197572
98.4410144958632
98.445761082323
98.4436749239795
98.4478803404951
98.4656825303872
98.488745672609
98.5132379223301
98.5183212004019
98.5045660930846
98.4912983893006
98.5026925814263
98.5118952393272
98.4919949396825
98.5030564217235
98.5489357203044
98.5708602905453
98.5479947613104
98.5161153958063
98.5138117074713
98.5258493032172
98.5436430428267
98.5497742052548
98.5669338393734
98.5866053533721
98.5876953605422
98.5758341758856
98.5689706279939
98.5956198198688
98.6196474563227
98.5725854690906
98.5317170948412
98.5318991919034
98.5481073782846
98.558624902294
98.5296969620139
98.5189266260603
98.5456227507208
98.5448150499591
98.5562607658137
98.5822016736392
98.5589533617317
98.512624134122
98.4999661478663
98.507684510814
98.5127475047182
98.5098530387474
98.5053804517925
98.4998652956421
98.4912310207817
98.4803609721844
98.4620844637262
98.4580004175194
98.4649036329132
98.5025389149196
98.5516973951884
98.5642797572882
98.5558183267812
98.536093661745
98.4972957829272
98.4707086297218
98.4811772664147
98.5047154166123
98.5128631190578
98.5413676900153
98.5578317562801
98.5473266495896
98.5278842862565
98.5170337434574
98.5276594735874
98.5596312868205
98.5985415043293
98.5984719317645
98.5921427908848
98.6101039092767
98.6506637945834
98.6314936055987
98.5842826690836
98.5887238440011
98.6187725311327
98.6391325062676
98.6814930540364
98.7067595694563
98.6730991063388
98.6396998787497
98.684336383984
98.7130602785775
98.6047625872227
98.5728470111742
98.6712214924248
98.7002793471221
98.6341198814326
98.6432672098581
98.6849317741095
98.6396243197624
98.6301939507346
98.6658218686315
98.7146236229685
98.7053942807291
98.6867320217325
98.7109139796774
98.7529296616619
98.8159797766524
98.8233082448847
98.763738305783
98.68366642325
98.6327127928
98.6562905630156
98.655228446302
98.6547314441338
98.713852461343
98.7112334782839
98.6669677771341
98.7156508660343
98.7751678403925
98.7514507150973
98.7494602021296
98.8131263369518
98.7788813130016
98.7099211325697
98.7365642413701
98.7483833571993
98.6870931305678
98.6974999067378
98.7916429091194
98.8055508373913
98.7551582534925
98.746440071819
98.7745377103726
98.7525393373293
98.6921565327867
98.7001875012238
98.742569315518
98.755721014183
98.7338914509001
98.7252916045047
98.7361991262159
98.7483723303993
98.777128140464
98.8213807263252
98.873937433325
98.8663213370261
98.7895815615626
98.7587958403577
98.8056242169176
98.8443447890574
98.8704361055676
98.8992429709331
98.8339720564311
98.76896830755
98.8254377719133
98.8266959553311
98.7685171407222
98.7995509816237
98.8770587478989
98.8662246782866
98.7690541263095
98.7473754038979
98.7818353300321
98.816751137815
98.8445781493718
98.8091942102771
98.7362872553302
98.7416100680984
98.8154494922583
98.7992405838546
98.7067377066625
98.733114520455
98.7667952237502
98.7263194609825
98.8068512870781
98.8372057312546
98.755908854831
98.7015686563728
98.6863691525432
98.7145292519019
98.7688253732191
98.7609687435784
98.7117034634885
98.7408029613584
98.773660835362
98.7611720196103
98.7746152479069
98.7773866940873
98.723412625918
98.6508809522937
98.6421254173793
98.6274041179981
98.5709648544126
98.5811465958615
98.6335341135322
98.640586544764
98.6252661170576
98.5859430036921
98.5678391859841
98.6217107546115
98.7726929090866
98.8496418110466
98.7570995531254
98.6180632595625
98.7800234453338
98.9111619599208
98.834455117881
98.8431381697219
98.8187212444477
98.8287623315839
98.8650039173041
98.8654466391826
98.8030901223053
98.6732394900783
98.6546897619062
98.6131383756669
98.5509848334002
98.6099333885706
98.691618321018
98.7796990552703
98.8933727620043
98.9701480058536
98.8647944715754
98.7374933144696
98.7847912168109
98.7373509618275
98.7004308735639
98.6176996546032
98.4695131752122
98.498774424423
98.521065045322
98.5762826608563
98.6001766245905
98.5974202354249
98.6255562387165
98.6657397349394
98.660907328006
98.6856270192711
98.7035489413781
98.6974473720147
98.7190079585055
98.7195343887309
98.6662718318334
98.6469314058955
98.6794665267462
98.7217122613443
98.7008088378094
98.6251579331128
98.6875329636259
98.8076659083074
98.7845376338002
98.7636513652113
98.7788689829045
98.8620744707251
98.9715383186288
99.0034124079212
98.9860861192797
98.9285964287543
98.8944380838222
99.0715562795509
99.1962540531503
99.0552634755483
99.0260819656379
99.1139208508736
99.0462546038444
99.0199025964575
99.2431119760883
99.3570277233884
99.1807700830736
99.1592695173153
99.2385856564813
99.2432256684478
99.2721561546264
99.2527960113236
99.1856945846535
99.2385199212897
99.3159266793019
99.3088016631747
99.4033797437866
99.489448172457
99.4035666218431
99.3200828651571
99.3178094546316
99.3497446539814
99.4958342187139
99.579800663263
99.6444817018441
99.6671669240818
99.5765710445954
99.7592645179002
99.8531077562101
99.6281684426073
99.4778576303039
99.5596429790335
99.6742762281319
99.6024947513313
99.5636053955911
99.8675294434523
100.06139220218
99.8380520001834
99.6778001639491
99.8902578005264
100.053765578543
99.8260978049446
99.7121931372047
99.9085426186205
100.077382400455
100.246460499155
100.072019622802
99.6812703172927
99.476847245019
99.416955705351
99.6541244689784
100.163728186114
100.349588242224
100.212637900416
100.226711460135
100.555271152048
100.713651581115
100.399594911205
100.113790887868
99.9765239534716
99.9133464208061
99.8143500625119
99.6758462345611
99.5574371887803
99.4837155655403
99.5051880795077
99.6683000884889
99.636205573838
99.4153719359909
99.4913614956229
99.6264263267099
99.4630457588424
99.2787022316462
99.2278068534122
99.1884332251332
99.1732143953737
99.1681293365451
99.0755431355276
99.0940394636593
99.0942775511743
98.9683404434857
98.9003566055391
98.9140144685973
99.0059273633264
99.0718373880607
99.0596497243527
99.071319249159
99.1153180072101
99.1313452318605
99.226134232952
99.2848547237889
99.2919344469922
99.3836519455198
99.3269169568342
99.0778621717145
98.9218369120547
99.0298701930579
99.1502334424852
99.1277024468731
99.1692574358949
99.3194996164069
99.3952112284506
99.3792633307871
99.3627997206764
99.4057885654039
99.4645274795728
99.5006046857525
99.364198266738
99.2555988200018
99.349123968139
99.5195153509439
99.6023420618969
99.6281156162055
99.6024896541678
99.7247014522667
99.8921559967452
99.9278268879439
99.9859193655047
100.097944860963
100.169682315174
100.1399956855
100.210551688461
100.284917019981
100.151600540013
100.148775441305
100.183379603191
100.260102240729
99.9324985180619
99.5000977845803
99.7245808365565
100.010033536812
99.863675950224
99.5104228247297
99.5703666937183
99.9910828702181
99.9018430707877
99.897364111363
99.9708046519095
99.8300470866492
99.8470785464705
100.062875787288
100.007931979418
99.6769158682919
99.4463670083463
99.6658009451599
99.9610093404213
99.8118642425446
99.5376335012214
99.4864895637367
99.6073230232352
99.7864469897415
99.892004865151
99.9658133184187
99.996096309471
99.9197430386957
99.7979015988907
100.042959449062
100.145134130894
99.9258759750025
99.8413938480984
99.6860510276417
99.4118923994086
99.2845702106068
99.0930497735782
99.0937215411809
99.2968410456989
99.4425731520489
99.3795590121317
99.2693647961821
99.2112645964068
99.1830234717471
99.2252935022797
99.3566002438807
99.4069915460811
99.424187683916
99.243299349511
99.1937328494614
99.2040071126837
99.3103831672377
99.3472290984776
99.2737727648682
99.073678987252
99.1445164017228
99.1701081232675
99.1893326108005
99.3547486420078
99.296963298233
99.2768199431929
99.3000001288581
99.2250588779368
99.2415476492807
99.2961394284493
99.3536221897507
99.3949408230498
99.4669154366498
99.4383640101342
99.3781738009036
99.4191181933947
99.444733178562
99.3039150259073
99.3611126201833
99.3855837739796
99.3926645071019
99.3497529561594
99.3590792310678
99.3750082073348
99.4163394232631
99.4030504679248
99.3700858937538
99.3011961654951
99.1834638524673
99.2066862030031
99.2803811877532
99.2668102097191
99.3340130284185
99.3020672290175
99.2210370872138
99.2132972275963
99.2721382048345
99.2483210622776
99.3000043430643
99.1790233702526
99.1849096468841
99.0383745084363
99.003978134309
99.0704504419813
99.1148395282013
99.1131327245319
99.1122361163255
99.0577869910978
99.0734617040498
98.8385867319294
98.9106496027536
98.8978479156714
98.8667062036111
98.9131689901083
98.9348471356406
98.9685318620149
98.9470760243385
98.963620450139
98.9541720883536
98.8731224755079
98.8963720191878
98.9360062669876
98.9754692163858
98.8905011854999
98.7996651268903
98.7930973145626
98.8287699729962
98.8520619876169
98.8898848815744
98.6732355485455
98.7531798146733
98.9484011820219
98.975039848867
98.9003113555366
98.9726745501439
98.9122794027201
98.9110236328774
98.9508824241226
98.8654297757981
98.9130971384627
98.656168405658
98.8482690564158
98.78071679289
98.7843150016019
98.846912354863
98.7639604944861
98.6631921455154
98.7754687072912
98.6327925919493
98.5664306122979
98.5207325007148
98.1894040061729
97.8516778909768
97.3874143471023
96.9374372247187
96.216662524746
95.5125602504459
94.652848101855
93.2924027413415
92.7183978617004
91.9316098202277
90.5496931898002
89.3077268752413
88.1949498704715
87.2689326711942
86.4373896842672
85.4701652908736
84.4423916045215
83.820038456823
83.1985983355855
82.283519352925
81.1230110714565
80.5135435963324
80.2852602149754
80.3648264226832
80.7119285220194
81.2050941593049
81.7930334075911
82.3812358671856
83.5917773281676
84.4895916909466
85.2589435903068
86.5973198830735
87.0593987172392
87.5884145887658
88.0304184057101
88.2667263848218
88.3011536751267
89.4694158061615
89.7031645215118
89.9274380218471
90.1509561895169
90.4660627362336
91.2175113241888
91.2773785883528
91.4885671326924
92.3189566428978
92.6813683822714
92.6205118517871
92.9454151390825
93.5910627419926
93.7387747565652
93.6398838358956
93.097571406716
93.5260046944077
94.8412844105357
94.5908078498226
94.1221450214529
94.7908736134671
95.2488828598933
95.2430495630477
95.173841958838
95.0644407226407
94.8428526856241
95.5699497232035
95.9036337305392
95.7992361268661
95.6818508169875
95.8089245237915
95.8534715024567
95.8381405375883
96.131546573937
96.1421347749761
95.8610114385492
95.9297525303186
96.1584693227779
96.0068715784196
96.031373498269
96.1567979447258
96.3568087080049
96.446554799649
96.5960505330315
96.7604432770865
96.9283251635904
96.98453387295
97.039144382827
97.1094998192933
97.1949506615374
97.222997054906
97.2289657349687
97.1127203439547
96.9770083012685
96.6905537539582
96.287081027284
95.910626125634
95.6998882572722
96.2302543457121
96.5132049274266
96.4231784464926
96.5790042868201
97.0918859794691
97.1000096157474
97.2047162243554
97.1497781830395
96.4131642069521
96.8368706219417
97.4381828025123
97.3193153879494
97.5024786095704
97.3372330766178
97.5346294853983
97.5804037442978
97.3665350218442
97.2974317077663
97.0476099665754
97.1455676317283
97.6662932820969
97.6963538621786
97.3685310099391
97.6239188676987
97.6413337499396
97.4867572906612
97.3185970473608
97.4751002051674
97.2376223871685
97.1820973748564
97.5149372572414
97.4084172248671
97.7432613029587
97.7639404889153
97.4229035961864
96.9456528795836
95.9293154610102
95.1010291570522
95.3136845700436
95.709902226023
96.2249803466585
96.7495581584343
97.2055242856874
97.6682093342364
97.8975421698857
97.6864840466908
97.6236685648821
97.6743423119625
97.7882486386916
97.7356104423028
97.4894973097964
97.3854430607561
97.1042180918672
96.6896708072072
96.2993501169554
95.7780887648391
95.977715130934
96.1627569137328
96.3382096226571
96.36886050054
96.5496287602599
96.3883799134771
96.1787536301066
95.7760722402356
95.8936328680248
95.9410665362435
95.9680903425071
96.0090384919972
96.0241705387934
96.2642269093809
96.3763109464585
96.3800176749214
96.4297595197813
96.4207680844315
96.2981093766654
96.7085788756286
96.9412977401633
97.1076257279875
97.3137697313887
97.633212586978
97.7592676705658
97.727249392902
97.8802028300744
97.6421045654334
97.071097650589
96.3158068820939
95.1752183107494
93.6458438486636
92.0531608557657
91.1177355168125
90.9479949653017
91.5527830078806
92.6457573012603
93.5234562470417
94.0838505868479
94.776091847979
95.1300126152328
95.5168280379744
95.8999183029513
96.0418468033707
95.989924915724
95.9752376716126
96.1377102942672
96.1896070088094
96.2418646161886
96.182266734018
96.175099577883
95.9792847493655
95.8070653872389
95.7919887021507
95.770265451936
95.9104426374217
96.1538943900428
96.2634718789798
96.4912248404417
96.8554154633635
97.0889059451588
97.2022787803854
97.1933416730238
97.1135594613115
96.8785950779673
96.3539445917368
95.4529707182051
94.0810608029131
92.471955203543
90.9796643597091
90.0684729181953
90.2607015993071
91.2950296340648
92.7331174109765
94.1265295031119
95.2727908166351
96.0606302219423
96.5342823882846
96.7713813421091
96.8432918729883
96.7770846594911
96.634802915487
96.5300446641498
96.3986476697954
96.1823337599326
96.001366424949
95.7943215401809
95.5143683286815
95.2725954656598
95.0488385001351
94.7812449029875
94.4391764444271
94.0404392990985
93.5411147944422
92.9827409590924
92.4389424240516
91.9081687333823
91.3889790879857
90.8701726667024
90.3837655012984
89.9033162635724
89.4069499912988
88.889108834322
88.3843055097708
87.9103779505804
87.4264604626882
86.9207663204638
86.4096807461476
85.8881587346241
85.3539413635855
84.8160551769675
84.3096689241422
83.8413096784586
83.433185594024
83.1260610010393
82.8659125249348
82.5984258866358
82.2980906818882
81.9700784456422
81.6241615958955
81.2934547818135
80.9884542708441
80.7168379850896
80.4986146105989
80.3660976810623
80.350738899723
80.4333560935918
80.6192770328997
80.8892977301076
81.1969495342835
81.5443451901892
81.9224006739241
82.2837779425486
82.6322353491231
83.0339146637428
83.4957616605398
84.0089931204895
84.5640664073552
85.1282616142744
85.6683504681373
86.1578993416847
86.6500482157919
87.1650470253119
87.6688068770057
88.1669364313326
88.6736708717671
89.1801999279318
89.6857559421858
90.174787882055
90.6414997642117
91.0674026302702
91.4627789423012
91.8211026359815
92.1080762151808
92.3171140486623
92.4416099697231
92.4712250992945
92.479969832845
92.4945618046078
92.5394612759441
92.7307239460167
93.0775792616564
93.4908666772618
93.9143427437858
94.2767785788672
94.5136265539635
94.6559695346587
94.7429933813696
94.7832117375161
94.7590249125802
94.6614156625805
94.4866950578513
94.2620968821109
93.9891137355826
93.652901003238
93.2385696094769
92.7354601839084
92.1368879283054
91.419231441621
90.5598977499074
89.5787027889018
88.5412245128008
87.5588808336692
86.711872616753
85.9942990223222
85.3797694795237
84.8514810818359
84.3974430193827
84.06212224393
83.8872808281449
83.8666382344704
83.9328618028841
83.9761303946687
83.9412155929993
83.8046060725333
83.5258070253053
83.1261411903027
82.6880531084979
82.2648740221748
81.8853062588951
81.5494661620174
81.3034212295208
81.1231391466308
81.0207575118987
80.9928088993946
81.0041858491863
81.035961572137
81.1220517977584
81.2617962183002
81.4421656865746
81.7252038846539
82.0851783103778
82.4961791350044
82.9797445236728
83.4811686142861
83.9579877662329
84.4376718681672
84.9145955354425
85.3722413324972
85.8143848777518
86.2325158141852
86.5889721440632
86.8998001282814
87.165218562142
87.3303534460948
87.4130093003464
87.4526630186941
87.4503688421902
87.429940612629
87.4516914103267
87.5124099109213
87.6235622661917
87.8170746061552
88.0816952340725
88.4185582007336
88.8401178915071
89.2986758662303
89.6105368862303
89.2745389203638
88.0704158401378
86.6127173728915
85.3795595851919
84.2197725562922
83.2306203336382
82.8668705360182
83.2957735566844
84.1983522911214
85.14957178165
85.9740122936952
86.6387393148921
87.1804094078327
87.6426142270361
88.0224748796328
88.3421649820743
88.6340016111247
88.8589460281096
89.0383905002297
89.1942655998724
89.2837678826145
89.3501661239951
89.4515439203215
89.5668593099387
89.6233642926805
89.5887195954814
89.4473398627557
89.1638203801762
88.7754576405674
88.3946773885775
88.147223831097
88.0826383759713
88.1819153519614
88.4040373684119
88.6702712473041
88.9465181259195
89.2303109431735
89.5161247897834
89.7720147133564
90.0015625671162
90.1891836814492
90.3506532847006
90.5009370439628
90.6835706592875
90.8467356325526
90.9449905811076
91.0716052513305
91.1884333630871
91.2803490330518
91.3609220519392
91.4473620537831
91.5325936450303
91.6272092922946
91.7200644912966
91.7994038943495
91.874737116822
91.9692957742547
92.111204796266
92.2031832206059
92.2376708054123
92.2942180525175
92.3367196828963
92.3458642106828
92.3388405339286
92.2227110201268
92.0670801932644
91.9446751491664
91.7992299808792
91.6935828471447
91.6241121087096
91.6467386262858
91.760925961245
91.8620623587202
91.9316424263214
91.973333384424
91.9826941639829
91.9568872549869
91.801785207562
91.4895267913818
91.0001561178811
90.3731922641507
89.5348957659639
88.1219213495323
86.5995354654717
86.2914789048823
87.1189051029834
88.0456189723224
88.7303758973431
89.2234141430233
89.517093304728
89.6867895079456
89.7666920422969
89.7511757924771
89.6778469805105
89.5627600105615
89.3841484773704
89.1494413828734
88.937421413707
88.9291631019292
89.1421302466019
89.3874563400859
89.5959989273487
89.8599260119
90.1130243382996
90.3988601317957
90.6610775171052
90.8142206224001
90.9713262870271
91.1868429714895
91.4048430608699
91.5435748577935
91.6337811158943
91.755277210291
91.8379589374726
91.9015461481236
92.0263751548368
92.0826485779339
92.1020585764684
92.2256622869005
92.3392311924958
92.2912663271924
92.3039387275566
92.4572348047815
92.4129944481411
92.0039702191418
91.4847117364746
91.1412217250779
91.2590434047328
91.7042692966226
92.0642162134139
92.3461501478159
92.625937988662
92.8787305682484
93.1546324370096
93.3980807009073
93.6139769625862
93.8087213640279
93.9689142302679
94.2037619217977
94.3712835692013
94.5567260294267
94.7772671714323
95.0118179940749
95.2095958119126
95.4184905249463
95.6398028899192
95.846736412099
96.0311235395437
96.2239810163662
96.3844829868996
96.4234560044304
96.3449092794693
96.1650543310495
95.757688599938
94.824357863276
93.2521713759678
91.411184364221
89.4896744650105
87.4719261432257
85.6851462388971
83.8724720212718
81.8317186415545
80.1776258110617
79.1082192179746
78.6239930455417
78.7708827859134
79.2868222297286
79.9570091780321
80.5702515191307
81.0854531081191
81.6399761140444
82.1042473738641
82.5143897416026
83.0704728688072
83.4726785155812
83.9753141334949
84.673626969188
85.2134157664809
85.6674895266425
86.2957696163612
86.7061611823274
86.8884058978056
87.1113130065884
87.4852711268311
87.7276255842777
87.7500718221006
87.9164082914818
88.0651352827136
88.2031965252635
88.4473699016604
88.6683982453308
88.8727138625227
89.1051401393461
89.2357387855992
89.1171435343614
89.2927553828609
89.6763648401348
89.6919223268506
89.5891724748966
89.5014904358355
89.8092361651661
90.2499010352101
90.4341408443221
