1798
3999.43349933624
650.420452594757
1
128
4
97.1926733812308
97.1120128316955
97.0646826546779
97.1023804455233
97.1273991574016
97.144548116118
97.1929786768295
97.1805637496784
97.0824860096583
97.0943938736404
97.1616207218482
97.1452692922348
97.0449149820458
97.0126865511102
97.0878906654008
97.1754633176474
97.1739882399728
97.0883226290737
97.0798749441698
97.1247700798355
97.1361440338045
97.1088712008875
97.1189653646056
97.1415092917564
97.1628741018116
97.1467963820429
97.1445884570832
97.1839409003851
97.1550956720394
97.0818027474364
97.1354390349992
97.2131609729186
97.2826115101283
97.1439414162873
96.9318402437332
96.9707822842047
97.1185621758603
97.1580800958566
97.2052566713933
97.2055238109259
97.0725562107307
97.0163592221027
96.904311407481
96.9969284168085
97.2635207933261
97.2916997102854
97.1831271683257
97.09566983854
96.997129434876
96.8626318399952
96.7913715747569
96.8116649618285
97.049273795661
97.33635284037
97.3491267036681
97.2302940509588
97.0299171295522
97.0966662268824
97.1691640407073
96.9940505574852
97.0804013175167
97.133059017469
96.9757227326049
97.1278499860383
97.2766478974636
97.0450070953338
96.994594036768
96.8183336340792
96.894216647299
97.1494500094293
97.0744878249032
97.0516309509049
97.0379049795042
97.1691127637918
97.2779670564182
97.1805766778956
96.6594708382343
96.4990802380908
96.9189736732743
97.2849881069267
97.4172255112144
97.2705524493079
97.0870240696377
96.9715530302114
96.8464333693851
96.819585239375
96.8926673466748
97.1414532624246
97.1839079473932
97.2621179786081
97.2097761064133
97.1104236175213
97.1514502200414
96.9321887247353
96.726700897867
97.0582486225378
96.9728258760448
96.9309240223159
97.2546519549286
97.3980931232536
97.3133854535247
97.0882402745563
97.114513998914
97.1421958040597
96.8323578315414
96.8397035997875
97.050265275835
97.0526910070976
97.1488449735817
97.2814271452822
97.3120542885387
97.2642782759489
97.2216583980544
97.1567789841942
97.175718191049
97.1167644906307
96.8717095353533
96.8970190667375
97.0845466991847
97.2318147362456
97.2397303926254
97.0440322842065
97.048535472585
97.0834203549042
97.0762304406873
97.1478779887574
97.0389476050842
96.9425470787837
97.0275388525184
97.196437684949
97.0112515853627
96.8259183639974
96.7970297686271
97.0786566205493
96.9398482477265
96.669874034995
97.0888025164464
97.2358245080771
97.2753314786953
97.1101637995317
96.9034763428946
96.7375738623384
96.9287554583318
97.2276091867889
97.2014014271355
97.0803821735186
96.9582296497571
96.9514055249357
97.0938944815847
97.2054964989236
97.2551157559931
97.1159856976948
97.0070463856917
97.0755779264699
97.1831910007973
97.1956609760854
97.2734643386432
97.2289010687051
97.1284673837642
97.1006939689663
97.1859859391176
97.3279803537644
97.3276931607845
97.1469936712758
96.9691235609832
96.8043794092618
97.0493482969392
97.255988343871
97.3015160414638
97.138556917477
97.0577788570888
96.8470300795027
96.4835726449505
96.7540338635775
97.0580767532516
97.0585026054993
97.2230284452594
97.2982102761445
97.2501433374446
97.19451075602
97.1756944022735
97.1369369657106
96.9426374228462
96.998746108188
97.0521197746689
96.8400231500857
96.5311379906302
96.4742078506316
96.8902837599478
97.1235294447973
97.1803716121732
97.1853408377435
97.2044734749976
97.0615398182087
96.8379928000844
96.8497983501724
96.6857655896683
96.439547241721
96.5962063167307
96.9624466224176
97.1909298115013
97.1094048574548
96.9098502684518
96.8692553803954
97.0755395137445
97.1057589058788
97.0295754648271
96.8891709264749
96.8725807571761
96.9724992046347
97.1459807539289
97.1883432917173
97.132282205189
97.0909395028974
97.1096068463414
96.955681718853
96.8831552607443
97.0238327837342
97.0619189291086
96.9247401001638
96.9910537986896
97.1631672530965
97.10744160182
97.0451265002732
97.1531693595843
97.242098397299
97.2804073450287
97.2170699970735
97.2264702182899
97.1262125988993
96.8725785214166
96.7095084581858
96.9135807993956
97.0994196036987
97.1890278175457
97.1548238993278
97.130534177256
97.1297503946978
97.1254813758251
97.2159318856332
97.1864804082881
96.9735528510087
96.9455302813396
97.1604149988316
97.3247415760469
97.2216777674204
97.1056254257368
97.1518892706565
97.1950129208397
97.1355477565983
97.0839981983256
96.9880093937104
96.906410320948
96.9665501098889
97.1878277216711
97.2537616134242
97.2243273188416
97.2293826056142
97.1635782901148
97.0935434719465
97.1230128181834
97.1755695946551
97.2425203527009
97.2059483863996
97.1767862774507
97.2249106164566
97.3397678441176
97.3242058237604
97.1407812969417
97.1164659666728
97.2567748163943
97.2417399607523
97.1383014172017
97.242498631221
97.3679182180778
97.2465870907727
97.1161655373076
97.2246431997352
97.3912519659791
97.3865383867372
97.3321997809069
97.2938135867462
97.2927902886823
97.2041882663631
97.1228122708081
97.1963616187976
97.3884193735193
97.3654288047509
97.2417266511083
97.3206956860576
97.3927527082805
97.2673346101419
97.1240954210208
97.1407267807294
97.1622685494479
97.0644117834359
97.105881237509
97.1945808559028
97.0642411638659
96.8681335261434
96.8464603353804
96.8716838605572
96.9013324599767
96.8541526632333
96.8180678978262
96.8653719819261
96.9411317762841
96.9537640353682
96.8992199140503
96.8974080052284
96.9759212758761
96.9413765158669
96.8948426568156
96.8908943680099
96.9568375052008
96.9919373546403
97.0920489851567
97.1557373789619
97.0709511703369
96.9701214867972
97.140846473289
97.2924201513611
97.2167615209814
97.1943006403778
97.2488282019771
97.2160868930376
97.2713674657605
97.2597489234431
97.2037555250151
97.2019634430591
97.1765606792672
97.1203907436391
97.1818158472462
97.2660837418438
97.2639520569496
97.2115463221872
97.1566814117226
97.0756803679044
97.1829499693392
97.3491044842296
97.2864978450153
97.1817275637653
97.2242162034275
97.2688556461676
97.2541016091158
97.2308915752426
97.2505987974604
97.2939391618339
97.3037918966015
97.1539464190391
97.0890390410612
97.2140938742296
97.1975809376462
97.0576493937828
97.1024323500484
97.2061005924874
97.2180308424012
97.1956982819655
97.1933776790649
97.1164900976114
97.1316084224867
97.2007931629171
97.2182717302755
97.1874370551196
97.1907256598967
97.184630611733
97.1410333316252
97.0807271333507
97.1121790094225
97.1760597595202
97.2489705811914
97.2686197328736
97.2309902130905
97.2096363786742
97.2461281826661
97.2431207627077
97.1892857088291
97.1809407986094
97.1817484306191
97.1656430216689
97.1492091940017
97.1441250301764
97.2541563269092
97.2994943491906
97.2942814359938
97.2823140681146
97.2257665424275
97.1659182289545
97.1059640815977
97.1357608777655
97.2336845484594
97.3175265126993
97.3216761926006
97.2825968266038
97.2675869053108
97.2446592992213
97.1620719704247
97.118690129341
97.1657323559655
97.1983679536588
97.2151937506494
97.2084324276789
97.1873745586592
97.2927768313038
97.3757326131991
97.28561011619
97.225303350406
97.2127636919637
97.1203471292059
97.1396887905777
97.2348284955931
97.1837872152436
97.1375747974099
97.2534519371704
97.2791564509048
97.1673547792786
97.1574593497186
97.2482835738744
97.2451769060361
97.1978495642023
97.2322060113072
97.255770971416
97.2891834314431
97.2376008538607
97.1365881398989
97.1247381169658
97.1677779117371
97.2246180155395
97.2543463738302
97.3006678273971
97.3371451583122
97.2867811881562
97.2733896609829
97.298910399601
97.2606962600813
97.2118146880122
97.2004741986776
97.2235202501954
97.2633013034008
97.2229299384343
97.191268842256
97.1809845016067
97.180547599646
97.2230143228741
97.2655251052233
97.3026521772628
97.3472078012036
97.3069898928681
97.1977119353023
97.1231721129512
97.1806467731087
97.1853003448983
97.1665479914214
97.180433572357
97.1517846847642
97.1696637873175
97.2496536863222
97.2581440853012
97.2158994260954
97.174247177649
97.1560660712807
97.1777372436825
97.1779137193989
97.1252305965725
97.0935071222032
97.1125050690361
97.1514036380499
97.0922160159888
97.0551799231657
97.0769585073313
97.0835185994064
97.0944124026115
97.0764722455962
97.0002956026721
97.0069814232557
97.0800414644921
97.0478522048327
96.9681917863923
96.9535664952942
96.96997929789
96.9643871610713
96.9616372387218
96.9534492028538
96.8876829717086
96.8673682066207
96.9183770432684
96.9757543852887
97.0152544914635
97.0111347947899
96.9969890902178
96.9636919477586
96.8601908443144
96.7950456395092
96.7894467608039
96.8018957674999
96.7984659624703
96.801910000008
96.8177064171559
96.8065728973861
96.781822804175
96.8208072241436
96.8526946132867
96.8454056357904
96.8503889849224
96.8541310370565
96.8152989662746
96.7160864846005
96.6651657516346
96.715895862148
96.7819760536842
96.8355642729486
96.8965317417866
96.9294914249915
96.9936885165167
97.0744506369605
97.0656200966761
97.042299377544
97.0709601775829
97.0901253165453
97.0099978676307
96.9571916042848
96.9907966216157
97.0137486574967
96.9665862993873
96.8958833845708
96.8570201222652
96.852733847205
96.7779448443888
96.7197715706626
96.696291113803
96.5986613554638
96.5194232359284
96.5394540946864
96.5528476811182
96.4995656346762
96.4570326164984
96.4325747175732
96.385758650573
96.3843538258337
96.3808063984329
96.3464422604873
96.2823377225619
96.2202244801122
96.2163753400159
96.189226334946
96.0829430202357
95.9591180191289
95.8398373043856
95.7111440922535
95.5890315768907
95.458397788843
95.3258318469814
95.2405137567184
95.1950168281721
95.1965932375955
95.1550136016766
95.1098238705385
95.1418311175706
95.2356026091419
95.3320281187302
95.3914301106431
95.4675989765715
95.5865625256076
95.670839747627
95.7510720017731
95.8565031870739
95.9601197744748
96.0713225441439
96.1783116358131
96.267734507012
96.3220276856829
96.3753630524723
96.4615597877952
96.4887597754485
96.444309702545
96.4526517492989
96.5032745802265
96.4591956709912
96.4299518560464
96.4628271745527
96.4629413426201
96.404800082797
96.3080767641251
96.2438056317748
96.1725255416341
96.0526743056456
96.0156265042295
96.0585671322225
96.1395641886707
96.1998020141281
96.2238273742565
96.2829375708612
96.3566117899626
96.3722624054953
96.3606518470968
96.362684583851
96.3584788881176
96.3703750797628
96.4534128364291
96.4325591472623
96.3859434318922
96.4392712749269
96.4722275687358
96.4536662754893
96.4558031958677
96.5289912046265
96.5654660698823
96.5150406397943
96.4983013939935
96.5157277595922
96.5268021769319
96.5121004581459
96.5396984338468
96.6152460582097
96.6174062818374
96.608990943211
96.6460381332817
96.6844536703224
96.7219052556128
96.7174070021935
96.7226309089746
96.7401277681858
96.8077768425511
96.8790225516906
96.8600809759097
96.8417914451951
96.8855603660522
96.9196791704496
96.9089519698593
96.8864778221566
96.9076917501725
96.9650419433383
96.9688790288309
96.9004034286228
96.8664830765697
96.8912057223965
96.897964868085
96.8704267640132
96.8492569668637
96.8552220684318
96.8614240915126
96.8772014253593
96.908298771267
96.9154664270859
96.9122127945668
96.9106487840316
96.9264318958562
96.9160231985248
96.8926391083025
96.9292896645681
96.9841021078662
96.9973877404913
96.9926880315358
96.9685858411247
96.9574120342447
96.9697149418508
96.9848815697074
97.0141617801305
97.0216718791378
97.0069010954809
97.024192392933
97.0413802627964
97.0255603035293
97.0274583667366
97.0484197475096
97.0395000180907
97.0407924490069
97.0331525253142
97.0104525563771
97.0258301600419
97.0340568102512
97.0130074602425
97.0336090939446
97.0581699903262
97.0450236930624
97.0148513735981
96.9820262160184
96.9655023376678
97.0030836826101
97.0675048485535
97.1086274948671
97.0921215085332
97.063531333575
97.0510495525762
97.0361960468306
97.0563312697826
97.100328098017
97.0870264202488
97.0628052484799
97.0666463610858
97.0931724000497
97.1402470811942
97.187672344789
97.2096532333723
97.1830745698869
97.1323018580352
97.1224305769886
97.1457787447305
97.1705752640605
97.1851476197329
97.1718879387434
97.1443193657412
97.1230820327339
97.1371702055675
97.1652042346514
97.1610165520383
97.1501522232377
97.1369417550384
97.1399877192193
97.1763216061014
97.1893205771445
97.1382227012697
97.1080414576461
97.1400201555158
97.1971343887897
97.2197547804802
97.186789360455
97.1169681562808
97.0745558154637
97.1060224857119
97.1204055918663
97.0933977946328
97.0730862027251
97.0524363967679
97.0803216695674
97.1228406855788
97.0840882598232
97.0404265510489
97.0717561270687
97.0863672617439
97.0699020590365
97.0779367980329
97.1173054807599
97.1203833741145
97.0658009065426
97.0435099099592
97.071659063603
97.1022644096272
97.1130632376563
97.1164089259748
97.130543234977
97.1361614896291
97.1429824418208
97.1534320394504
97.1518504007065
97.1611952595476
97.1842888709144
97.1764934720889
97.1517698278198
97.147710087803
97.1998105261777
97.244812372153
97.2513486342166
97.263049572405
97.2806221311868
97.2650054374086
97.2163240220522
97.2051376445281
97.2381804734757
97.2935669861648
97.3322338129259
97.2813800122781
97.2348537953761
97.2763084314472
97.301653208238
97.2816331122162
97.3018774753352
97.3264770511652
97.313716407067
97.3073265283294
97.2928384944811
97.2281610484184
97.2020945118303
97.2422669966897
97.2806172135133
97.3036610458111
97.3183909193017
97.3177639552748
97.3034999989756
97.2946961817224
97.3282545901902
97.3157323202418
97.2352342535243
97.267447924765
97.3625464207289
97.3434155642318
97.3123334308783
97.3142138535821
97.2811773378036
97.257583955641
97.2855333886584
97.3315332240204
97.3732557139208
97.4070762756296
97.4301990724517
97.3721016074632
97.320158116247
97.3064628534472
97.3055504810086
97.3536051874508
97.4141470824973
97.4324000780718
97.3767241493371
97.2953377651889
97.2894076681818
97.3299315508375
97.3901691508658
97.459734861757
97.4541022761121
97.4366126381812
97.4351852180927
97.4459468279602
97.4854807912907
97.4392419471998
97.4010039372784
97.4462564046919
97.4255259747271
97.3848386008599
97.4127024519818
97.4415888309717
97.4768086055528
97.4877100760166
97.4586410878561
97.37722449737
97.3275744597966
97.4361322973958
97.4917783922666
97.453283102353
97.45963402798
97.4471793906474
97.4156961087997
97.3445681832604
97.3073422727249
97.4173930954166
97.4860809639161
97.4386047901275
97.4096182123973
97.4509768747401
97.5177930808941
97.5036063565556
97.4554538028291
97.4659205622981
97.4316261187675
97.3757261836608
97.4030220100983
97.4585382515442
97.4890536962778
97.432317565605
97.4222623415346
97.4682004886888
97.427477375405
97.3563444123617
97.3617506446533
97.4258198172604
97.4337747544532
97.41417958274
97.4345140349177
97.4158457978265
97.4072453233989
97.4245466281314
97.3691703956211
97.338579451815
97.3568158698069
97.3711917181228
97.3479623866848
97.3065094301673
97.3139204771049
97.3584265828988
97.3813563671822
97.3530708353274
97.370950135054
97.4552208730581
97.5008815505197
97.5736164169767
97.6056175529344
97.6568503632943
97.8080614267902
97.7932658196451
97.6449114170934
97.5475611936232
97.6467415891067
97.75492483234
97.6839746045649
97.685346705511
97.6669634408403
97.5252053380228
97.4198310700842
97.4249948039998
97.4728994096455
97.5009163454837
97.526787444859
97.5390517234833
97.5604119498381
97.5863544024071
97.570794068069
97.611531517061
97.6261221860396
97.5330797352384
97.422305258124
97.317390439496
97.3379050107837
97.4241960608005
97.4553857682063
97.4235148561285
97.4549177163515
97.5144583310915
97.5195011814081
97.503484794438
97.4789865421005
97.4727119953091
97.4263364474538
97.3834856374704
97.4324847787142
97.460447748006
97.4200511343208
97.3725668216749
97.3762880355377
97.3580582298491
97.2956796668921
97.3193509462808
97.3945982626731
97.4659285599095
97.4968483490634
97.4701071092773
97.4967180586081
97.4975392538831
97.5376513398064
97.7556682844746
97.809610804122
97.7169984368669
97.7485164772493
97.7072398035757
97.7574213869869
97.796947583085
97.7635479990688
97.8831478032522
97.8721078477124
97.7640530703662
97.7282945876879
97.7578370024729
97.8597569029336
97.9362054149552
97.9458583268253
98.0009123738744
97.9739223620718
97.8766054771844
97.9874809696556
98.0456836068633
98.0072900640219
98.0551566959104
98.0006251132853
98.0667170687329
98.1310562387808
97.944224839606
97.8647129787347
98.0411478090053
98.3448645769221
98.3856770311509
98.3617618703751
98.4400833172204
98.3805446882695
98.3154421547552
98.2195731127647
98.0612126091775
98.1511262401833
98.439172076101
98.5922226063469
98.4744298101626
98.296774284912
98.3780204798759
98.4608046144571
98.3258853152696
98.5050851329662
98.7453098709456
98.5791331574009
98.3841022318407
98.3312976256176
98.2108183492958
98.0978130915818
98.5268978197016
98.9730584042431
98.8596566522872
98.8127428294501
98.7297461417253
98.4496101256459
98.5525722649245
98.4987553860684
98.5399724984943
98.9629944314098
98.9814189047439
98.8902506391194
98.8107442951674
98.6905099948596
98.5941412219615
98.5444606670723
98.6419618645398
98.5082605279589
98.2996024911824
98.3060888986379
98.3364695841762
98.4147229367619
98.5265821634577
98.4431244841382
98.2026482878821
98.0889807645185
98.1186872222779
98.0583795225942
97.9303191551557
97.9610615344822
98.0679116233209
98.0090669860239
97.8681259823848
97.792818006547
97.7396420463704
97.7721201090871
97.9169951912822
98.0014735473309
98.0067450344836
97.8855302892675
97.7737901615282
97.950321498925
98.109043651443
98.0124562817937
98.0015156805717
98.0456125946076
98.0310992675458
98.0563569940155
98.0493844311692
97.9626393999069
97.9814389560783
97.9778078928126
97.9217553417059
97.9099768493976
97.9475229639743
98.153953396506
98.3660999756165
98.3535820035455
98.3228514977983
98.4241527451296
98.4208014058555
98.3001090576497
98.3284926300099
98.4228689945824
98.5596719485834
98.5622864756607
98.5460664968981
98.8272196302548
99.042858013382
98.9094390006413
98.7751690625502
98.7503488438997
98.7347281099885
98.719717069309
98.8906915489875
98.9320559297978
99.1253480153151
99.3776452106744
99.2654308418309
99.0281906980307
98.9143236534474
98.9539626731246
99.0714401894195
98.9958860560074
98.7080920769398
99.0512521757539
99.4748733566905
99.1033061350453
98.684579530783
98.567468147737
98.871225338608
99.2849169474653
99.3129204969971
99.2390429051139
99.1211860053416
98.866452680325
98.8352262623216
98.8373724264365
98.8407740923308
98.9951805780586
98.8797526662544
98.579611850657
98.5091095192171
98.6007278957669
98.7516334178074
98.9221932119482
99.1606398156422
99.1501778624091
99.2523116507866
99.1372321377393
98.7211375202992
98.6707048499884
98.7313238444242
98.4642790400641
98.2258844399646
98.2337142705292
98.4303452021455
98.4954775415899
98.3983293836082
98.3976759750368
98.4444436826863
98.3571905793557
98.056745240216
97.9668571832594
98.0959447051876
98.1322994017759
98.1807517637335
98.4442195757759
98.5217941354109
98.3014294035035
98.2847201957323
98.3698608507672
98.4162927564412
98.437157520555
98.4182658965568
98.3290689048339
98.272799545627
98.1514934511204
98.1535802834472
98.3136375283419
98.4030605514842
98.3845617100035
98.3030077852935
98.3384125575566
98.3939244357518
98.3251331358331
98.3648510862298
98.4943726165916
98.5177398150294
98.4572329609027
98.4387612727217
98.4550271233081
98.4488039321256
98.3713058363567
98.4051764915325
98.45522250158
98.410409655803
98.4041816490089
98.5097343568825
98.5064824356135
98.4606589455262
98.4681228613126
98.4671678934183
98.3902625290959
98.3647591316666
98.4469676070536
98.4650139690933
98.4307687518869
98.4305735266161
98.417372572971
98.37298041486
98.3856914742126
98.4009761724208
98.3205867835073
98.3093767870795
98.3209311788881
98.302364040121
98.2015233117787
98.2374621442491
98.2317667452272
98.2061488411147
98.1467432752864
98.1126597879398
98.0806576960515
98.0370124407416
98.0099690364419
98.0380083985916
97.9345053620969
97.9425641006949
97.9510855853579
97.964215455338
98.0360300229329
98.0925164296637
98.0592088765863
97.996287290675
97.9867479565551
98.014732386922
98.0187648663697
98.0088268365056
97.9412773913413
97.9025796432661
97.9357071538653
97.9978432968272
97.9816661729832
97.9241670224093
97.8686112083062
97.9948470924241
98.040296772261
98.0250040792608
97.9957580427631
98.0476262768884
98.0603130113107
98.1214993106566
98.0775615218102
97.9718860773171
97.929185374977
97.8836847770589
97.9397837325099
97.9495828769276
97.9853764850434
97.9220818735908
97.8490359889007
97.7937912841321
97.7274077721178
97.6224660525246
97.5077071493486
97.2818343684402
96.9708693857409
96.5658512217686
95.94858095622
95.1934027182297
94.162364220798
93.0355188645543
91.7072275618988
90.043658111953
88.8991460427086
87.7486311981022
85.9666286758493
84.4321676892858
83.0823752187347
81.8256909257415
80.704561225674
79.4455970132946
78.2064463148867
77.3199181015581
76.2198064285072
74.7051376220504
73.6168267283647
73.1804335969436
73.2337387288463
73.5480830550765
74.1314216733112
74.9464835559579
75.5973621445185
76.5506313448573
78.2003132080687
79.0077160382559
80.36261139641
81.7186421054368
82.2696440863618
82.9870892023047
83.6285981591649
83.7443947257676
84.1542642188793
85.4771003621251
85.8787186727082
86.1938714717909
86.362550355825
86.9943885509686
87.7832633597579
87.8646787755519
88.3145870487078
89.2689484496771
89.6116074202687
89.6733731727941
90.264826485003
90.920007826437
91.107465898118
90.924992049967
90.2932876950655
91.4315847740596
92.8005705820957
92.3469614536912
91.9327922307698
92.7465334757792
93.2107661760003
93.1584627158226
93.0436733217477
92.7729264989475
92.7683385506256
93.7204304812603
93.9703537998028
93.7789441615936
93.7410732150371
93.9136850261236
93.9218551200751
94.1251218508212
94.398974880128
94.1360369927099
93.847548740407
94.1723968146787
94.280662876926
94.1024104700409
94.1329517697647
94.3266444910419
94.5499151764623
94.6712877102452
94.8783293949728
95.1023035050941
95.2569449645186
95.3207505467228
95.3979584159291
95.4758535803821
95.5455988990284
95.5541674337036
95.5301477273294
95.3960542398228
95.147140705633
94.7497721511224
94.2533161747471
93.7276041150645
93.7555765352527
94.576974998074
94.8261131449658
94.7492409667781
95.131888837825
95.5565600686063
95.659859329954
95.7564135947034
95.4346593982515
94.9394164201037
95.8972667791359
96.3003523754831
96.2455645637307
96.280537033196
96.1935657374268
96.3308807008636
96.2493023525076
96.1018022953522
96.0111424679565
95.9348053454224
96.4954846390896
96.7902219101186
96.5140550450746
96.3559395185948
96.601915508114
96.5184275907414
96.2930787275563
96.2108629594595
96.2655046267368
96.1460867472833
96.3658360220887
96.495393031898
96.4772725153839
96.673805516676
96.5610873702271
96.1717819588785
95.4315706990763
94.2010918895176
93.3763750174888
93.5502299270869
94.0665925657469
94.7399078872915
95.3986915810216
96.1308925616804
96.6371747924321
96.6666516034136
96.5242991793512
96.5758209675526
96.5995003327011
96.547460622081
96.3343433411815
96.0661204409707
95.8427485530448
95.4830572584271
95.0378275156457
94.5188687516503
94.1374730408647
94.2798446795189
94.4298730609829
94.5626932461296
94.7236976439747
94.855027231049
94.6023496561554
94.2142072773584
94.0345982692739
94.2892499259242
94.2272348435546
94.2000632169971
94.2128124164576
94.3123011514973
94.5171632874688
94.6171240441819
94.6747822682378
94.7199669375474
94.6524502225814
94.8013888466661
95.3292960645026
95.5756953620547
95.772113696862
96.091620322791
96.3956432447346
96.4687233727356
96.483499206769
96.419165715397
96.105914820863
95.4842262707517
94.2974890273222
92.562870777037
90.4753611581606
88.5322482151541
87.4835496655598
87.4726793851537
88.5149168946891
89.9582493868479
91.0001292893563
91.8623807470794
92.690693229485
93.2113816499974
93.7652689284727
94.0868538681771
94.1419604001271
94.1143661693734
94.191646001976
94.2961828881394
94.3239627941647
94.3591778050015
94.3442913887663
94.2938480441962
94.1303593101472
94.0262368007747
93.963195130537
93.9261165448986
94.1009825255861
94.3989515790819
94.6727330747086
95.0545330165375
95.4421301074057
95.6421919924426
95.684643455403
95.6203449505454
95.3928932467237
94.9337493513771
94.0971533284398
92.7644755580171
90.8793825956178
88.7649144365801
86.9767936044597
86.0612998777126
86.4961411265757
87.9694850799676
89.9090417089107
91.804526178707
93.3242755486885
94.339249262974
94.9060656588194
95.160928970025
95.2172730084843
95.1402670081335
95.0035765526154
94.8393035609753
94.6192496762057
94.350180818988
94.0755370539597
93.7633988673913
93.41042323122
93.105435408412
92.8137619688797
92.4293625409149
91.9205610854752
91.3119943029327
90.6330935158484
89.9178350440801
89.1683668425153
88.4345892296381
87.7389093898696
87.0405509916031
86.3314373655528
85.6152783735912
84.8939514383542
84.18758684993
83.4808954031736
82.7789170240616
82.1209692751038
81.4543542622488
80.7391137447535
79.990817183366
79.229569432348
78.4909412064784
77.8039024074534
77.1714753910948
76.642131210829
76.2074205997499
75.8207068138204
75.4311052284609
75.0278799097447
74.5904898345438
74.1247772078556
73.6310011185234
73.1829697701507
72.8238387682246
72.5569319002646
72.3932279304289
72.3688252284739
72.496948243428
72.7735044714933
73.1719757667081
73.6233848979518
74.0915897801875
74.588582170295
75.0742084525602
75.5620397496612
76.1180445799884
76.7585135763489
77.4705398231611
78.2134903389788
78.9457129565647
79.6870294320351
80.4127666204523
81.1186510097262
81.8298895339337
82.5250199611832
83.2031554116686
83.904843867386
84.6073080075308
85.2910369110677
85.9801506146207
86.6450957004477
87.2473243630893
87.7732427097286
88.2310912344468
88.6136873038069
88.8941884437729
89.0413118137911
89.0754876535351
89.0841982687386
89.1170906796024
89.2442736045568
89.5576873022838
90.0435874790195
90.6242643104053
91.1927989018693
91.6168172145509
91.8866459373616
92.076624851118
92.1917324089925
92.2305994531756
92.175999652413
92.0242816167635
91.7859065540948
91.466948857123
91.0796130218319
90.614087908844
90.0241576732536
89.2895884138284
88.4160480158829
87.3764055020231
86.1451088274282
84.7516008414948
83.3371924827203
82.0233136643701
80.8738279585482
79.9273587978229
79.1531857375205
78.4808453035534
77.9152028752208
77.4922131522616
77.2616438588473
77.2113353708992
77.2633837031375
77.3016057511064
77.2322050657129
77.0206084061986
76.6152552027693
76.0297833188394
75.3856378299474
74.78279781933
74.2543668711168
73.8066564770175
73.4597568827673
73.2320776847403
73.1190168897403
73.0900240556026
73.1191859103169
73.1841677398756
73.2910016698054
73.4812089777584
73.7728463146069
74.1521140383324
74.6482389833898
75.2458994277214
75.8853208678817
76.5636868612899
77.2444805831367
77.8891098300029
78.5160521866068
79.1290174264687
79.7164780939397
80.264135269791
80.7687951474406
81.2036805916017
81.5390748665213
81.757278928011
81.8804869751357
81.950018459551
81.9791503530685
81.9975723344382
82.0590173860472
82.1781137675731
82.3733086356699
82.668112888599
83.0528173208146
83.5222591628842
84.0821436703776
84.6565229210831
84.90582708803
84.2265117902851
82.474626618388
80.4590435811884
78.7835651409362
77.2706077083814
76.0443622601872
75.67433682013
76.3794883336061
77.6806262034847
78.9904176489775
80.0808305686639
80.9463563121082
81.6548382589822
82.2503587940498
82.7545330816934
83.2130001789219
83.611297878336
83.9546310366174
84.2083996772094
84.3890579599213
84.5066942780514
84.6150384407647
84.7624952299127
84.9258319327862
85.0188396687276
84.9378099380773
84.6583643849165
84.2250323189672
83.6964009936484
83.1969881419988
82.8944111073971
82.8385619015033
83.0137178941831
83.3231721680773
83.6870427065911
84.0886396588981
84.5167330538737
84.9062707782367
85.2320369830481
85.5193926846192
85.7796108211873
86.0336163368564
86.2878387902527
86.5199392707041
86.7086030651598
86.8704684760658
87.0450117131109
87.2172106881211
87.3570245081305
87.5062601989201
87.6467448511421
87.7688030633614
87.8969652386061
88.0208715236653
88.1456086672921
88.2937319713076
88.4525973792264
88.60209765793
88.7433777202878
88.8662348569521
88.917549584407
88.902898569103
88.8927332053366
88.8421247791364
88.7348417269325
88.5510290431193
88.3613414020011
88.2046796508574
88.0711651711533
87.9986847380849
88.0138756953201
88.1166666165985
88.2547645199838
88.36688258623
88.4319163117629
88.4459538375284
88.3346424695532
88.0454829601709
87.5723094911005
86.8885920823521
86.0011345595545
84.8118130818437
82.9461787984111
80.9485322215057
80.5740836460921
81.767961223674
83.0774026508232
83.9870213553085
84.5958301943124
84.9414303748108
85.1394468183374
85.2731080213864
85.2608107128513
85.156523979252
84.9771424547805
84.6603119722762
84.3245781384054
84.1664617026848
84.2262880655708
84.4372931742197
84.7517883378948
85.1511274035296
85.5142517246239
85.8549018887562
86.164323521246
86.5077143628015
86.8720998733862
87.1611918316125
87.3787242485277
87.6269948592895
87.8683074889754
88.0163731310873
88.1397859296218
88.2293171678729
88.3078019173862
88.3883860042852
88.4666886275114
88.5687595480811
88.6375760637352
88.718445632711
88.843448810906
89.0057445212516
89.1187589228508
88.9451004143045
88.3012435003274
87.5868256375376
87.3492182483223
87.5900290159878
88.0409788619551
88.5117806887697
88.9784930987901
89.4179489417854
89.8208661961058
90.159598885618
90.4494853564167
90.7135869769602
91.0107923723127
91.2385536226504
91.478091314108
91.8230479499177
92.1761721036029
92.4872438399841
92.8325076427893
93.1717111783821
93.3715367050147
93.5542866059403
93.9268421264737
94.1842916969921
94.3321412644474
94.4659584660409
94.6688167601075
94.6674117349328
94.294820796924
93.4349233961797
91.9642665151488
89.7586250223272
87.070870752221
84.3763725359882
81.6949562224317
78.9867598903845
76.2248566697981
73.4855116403062
71.067271302719
69.6716023248784
69.3722174285086
69.7108522270364
70.3941116041591
71.2902756246169
72.276841101946
73.2300150360489
73.9592228948616
74.5729149722042
75.2707550750749
76.0164185852971
76.5972464462157
77.1777818000508
77.9996057325746
78.9741029094003
79.6659273213386
80.1009908896042
80.6809950326235
81.3372502805156
81.7241496952754
81.9081845433491
82.046891909164
82.2371949265156
82.4567367497364
82.706006584744
83.1062021483991
83.4419470325493
83.7587184661822
83.8782552083669
83.8855533229777
84.8396678578149
85.0596052756447
84.9391675538534
84.9976938975676
85.4765882469271
85.6349877668855
85.5463488911064
85.6757983677474
85.9559642310427
86.0200632174763
