1798
3999.43349933624
650.420452594757
1
128
4
95.4103485499516
95.3802398727324
95.3605470873318
95.3383864746553
95.4219461925889
95.4624400726025
95.4891354884352
95.507608572392
95.4511958726378
95.4221196618477
95.4144789040598
95.3226159488008
95.2846693868667
95.2820803327397
95.4134087592811
95.5667126775213
95.5080355046672
95.3460567662946
95.3399726297196
95.3443003153247
95.336621854601
95.3286194093147
95.371350842018
95.4251144792944
95.4355500621793
95.362944542154
95.4031718275864
95.4644951059889
95.3201866009149
95.238569065973
95.3521740672618
95.4818062164473
95.5753525139864
95.50777578471
95.312233728073
95.166307155859
95.2903958114726
95.400102033996
95.3444137172536
95.3174322176759
95.3197806103564
95.3135430164205
95.1584502074797
95.2486927882209
95.5631393259946
95.7086072246166
95.6722456668923
95.5549325727865
95.3052533269229
94.9156757762114
94.7680052273562
94.8112749902357
95.1451873808562
95.6453715029515
95.8233253029066
95.675970666228
95.3670998793833
95.3945490295212
95.4044408790708
95.151888117705
95.2485800286424
95.3277516161167
95.2631953472506
95.4392433840795
95.6493921495844
95.4784353438742
95.410295601206
94.9689169365153
94.9795693879314
95.2896143348981
95.2856064013004
95.2866070603428
95.3393726565333
95.6569221950088
95.7651970464751
95.4749810515883
94.6508356951679
94.2801882046067
94.9097191115043
95.8322693453658
96.1959329678731
95.9640575399786
95.5715216795543
95.2086475201502
94.846069874415
94.6918974550081
94.8958354700161
95.4106184241201
95.589236592648
95.7617485299932
95.7243512274702
95.6930201660749
95.6511691370063
95.1792405632848
94.7999907306436
95.1437543802097
95.2010750927809
95.4701909268885
95.8052859007538
95.930897768227
95.8502868005115
95.4619826080227
95.3433464321492
95.2994992926219
94.9768303052578
94.9820453837193
95.2954537153466
95.5508931975636
95.6616825020539
95.7582722058084
95.8130037368305
95.6778085622437
95.5844340178739
95.4889545648069
95.4707075434136
95.4002506759871
95.2344137923686
95.3250337009294
95.4974473467287
95.6506693920866
95.5902280834252
95.3451082328201
95.3034282515118
95.2757620494549
95.4081651535809
95.5828714891479
95.4848370487964
95.3415818979402
95.2934637279338
95.4869748871089
95.2918936853974
94.9707705320845
94.5849895171586
95.0426740008846
95.2515908781082
95.1506061200459
95.5258099955336
95.7794720658168
95.9511139839226
95.590538670391
95.2377789846273
94.8455705480255
95.2139421209169
95.7450951856335
95.7951243934108
95.615472010774
95.393029780615
95.3238456284611
95.4879286403214
95.6058750277826
95.7106992300823
95.6520411652057
95.4636452083003
95.1971787518275
95.2514624364594
95.6456644073877
95.9718726700007
95.8586925693892
95.6599802506104
95.5505430641946
95.6613152348948
95.799883391766
95.7628822843422
95.5616025082971
95.2107103064115
94.7893956216235
95.1036580911364
95.5203349875905
95.85041853785
95.7470921078374
95.5994421676606
95.0853943476103
94.4764098045601
94.6907431612148
95.1444062685584
95.3097341237975
95.5343261357556
95.8208205696341
95.8264575352624
95.6932564037634
95.6335338984039
95.5023671751754
95.101235802318
95.0206535511909
95.0344776841612
94.853588797525
94.4279386049518
94.2172903323153
94.9706752844893
95.5276295085569
95.7401473458395
95.7228839569119
95.6141191210386
95.3736172141075
95.0146205446699
94.9431151562784
94.7267480656839
94.3908457195159
94.5340525536075
95.1019489914584
95.5035802096997
95.4523541972668
95.1936815605225
94.9016592303787
94.9761744740684
95.1461129926397
95.2481621580454
95.0537402455414
95.0091628013066
95.1853618623288
95.4717199943585
95.5865628134278
95.4874407602412
95.3935581001133
95.3702082240967
95.1501111053962
95.036503147336
95.2875552974199
95.4738124639711
95.2604228652205
95.1672184403523
95.392179958008
95.536340361315
95.4459797851474
95.4451938375004
95.5579282125725
95.6281686708434
95.5418304880385
95.4836888647473
95.2512585357381
94.9235354681644
94.7642469309583
95.0825412206554
95.4553395388789
95.627024688476
95.6009430733308
95.5069109243793
95.3865584090352
95.275665412277
95.2999965660782
95.3546024947597
95.1954519138975
95.156227144191
95.269208042411
95.4693793411392
95.5814046711402
95.3941919225816
95.3117438840978
95.4002066676647
95.3857412433781
95.4428125598314
95.4205805596038
95.3482169718177
95.2777322075304
95.369599992543
95.5507728352608
95.5877138968012
95.421845446717
95.381300037504
95.5286366668517
95.5852736751687
95.5073756418833
95.5683256639092
95.680461232146
95.6965807809569
95.6151925344958
95.6268147589887
95.6855810446049
95.6070656556112
95.557371993541
95.7635816840081
95.8477697065159
95.7628880787684
95.7582834040264
95.7987838992772
95.736281886814
95.6394782094018
95.5463750222556
95.6622327201874
95.7662009450854
95.7721168684397
95.8175584140872
95.7937990548761
95.6574272446617
95.6626169519349
95.8029314131358
95.9283037295331
95.790465290633
95.6561918888758
95.7403193545233
95.8722189028307
95.7905844392145
95.633761795768
95.5970117145495
95.5442584028323
95.4547128686301
95.4068376902672
95.460313517856
95.4700750521601
95.1951022780808
94.9387887472984
94.9379730059947
95.0955710515118
94.9979461193428
94.9068734804211
95.0563201434298
95.2009480537463
95.126191940785
94.9257104241522
94.9295671315599
95.1018949472937
95.1659036323108
95.2458721164216
95.2816698558104
95.3104980673283
95.2567624764585
95.2680252433669
95.3673377835041
95.3419861467119
95.220369457066
95.4406973705076
95.661768232076
95.6303155395127
95.6152344404223
95.6176397955583
95.6011094011995
95.791121829043
95.9137907571001
95.8131398432526
95.6983994841973
95.67570874465
95.5667972142875
95.5296326568034
95.6271731497876
95.7325347476078
95.7276977969367
95.6744433527812
95.5536145634184
95.6219296599696
95.8244479540789
95.8665300385043
95.7900443136912
95.8097700902638
95.8769098908361
95.9189188776951
95.8276119902434
95.677514102994
95.6264223068133
95.7353627307679
95.6536152635781
95.5634612380049
95.7078647981549
95.734837325064
95.601110447701
95.6107165043485
95.6919713386208
95.7141612145319
95.6417307323484
95.6296925346888
95.602715976783
95.6222857784726
95.6588587261072
95.6561558358002
95.6057954974618
95.6267296348963
95.7470738043021
95.7011686131856
95.5572775607877
95.5792267897143
95.5831266354127
95.6528781646993
95.6945445481816
95.6272233038595
95.5859228650798
95.6463079999559
95.7154289974184
95.7415431540864
95.6634861440768
95.6323501294149
95.6184985028692
95.6222369224719
95.6759823763414
95.7330443614147
95.7474769077709
95.7837033161192
95.7477364485136
95.6157245843078
95.5950649247129
95.6636474786841
95.6493775204854
95.6467285340027
95.7257318531416
95.8466355506482
95.9156170555404
95.8981216402226
95.7757765903914
95.6889218767731
95.6671358637252
95.6871863101528
95.7790259358449
95.8526827742396
95.7498111230109
95.623442991973
95.6345477529007
95.7078881050684
95.6987125630019
95.7296845380691
95.7780585445524
95.7244268004581
95.7132895015037
95.7183469328855
95.6824485678526
95.7294734962582
95.7616909286728
95.732973089137
95.6773142154068
95.6547854025996
95.6309539050306
95.5970481610283
95.6423172650531
95.7682673101999
95.8240621102309
95.8303082358664
95.7528590427066
95.6587144595919
95.6647564948617
95.7765748727304
95.8281003715715
95.7427814720322
95.662452776274
95.6905382358811
95.7043125919814
95.7280863056637
95.7454080146992
95.7219206178588
95.7215427456674
95.7465382353513
95.7629618876533
95.7994298160571
95.7566197686983
95.7062316504202
95.6932506439493
95.6866951755452
95.7063687501592
95.7344916328236
95.7783168958269
95.867265367061
95.8465359483555
95.7505955285898
95.6856196997581
95.7186555401712
95.6766153837761
95.6791264405558
95.7139919980131
95.6653123079739
95.6665945514914
95.7233570927711
95.7085007307124
95.6582391552642
95.6348413212473
95.7034762373251
95.7241431286633
95.6483573493149
95.5610767919492
95.5468277542532
95.5676989329798
95.5650617137484
95.4948302280112
95.4263751583313
95.4397110667355
95.4584854758202
95.4556211249344
95.4559950076286
95.4196940535214
95.4120445192119
95.3884346051014
95.367090347097
95.3381911027648
95.2597130823227
95.2052914456892
95.1523603885956
95.094141514328
95.1243978314166
95.1265557493876
95.1650260256136
95.2740244507798
95.3126381357545
95.2810371107489
95.2561922392072
95.2347733881125
95.202005446114
95.0604671064935
94.977307129629
94.9672985156837
94.9568229538019
94.9640231195798
94.9655613756108
94.9149479811325
94.9223582129108
94.9670683789431
94.9655282422899
94.9221688344179
94.9459739135234
94.9710347642929
94.9507211653572
94.8543992406848
94.7723858841045
94.7754731160761
94.8305980946264
94.8845002594676
94.9501426341188
95.0760738670211
95.1987058188836
95.2708887839331
95.3681307241827
95.4345811945321
95.4564759706059
95.4888536184418
95.4944190975418
95.3992539663623
95.3360841157212
95.3565840357883
95.3710140896054
95.3263980937614
95.2040210354671
95.0863542724795
95.0006370928552
94.8380448048629
94.757412037692
94.7278465892511
94.6158698650888
94.5371305891001
94.4965841116411
94.4208433209368
94.3443379405429
94.2505246635494
94.1884149473598
94.2170412645983
94.2235418029318
94.1332499793455
94.0819302237683
93.9943802700148
93.881727850238
93.8163052215952
93.6890057287539
93.4991341518527
93.3733403109737
93.1990486606336
92.9144684076917
92.6331001610006
92.4150973042139
92.2395434923594
92.0731678969532
91.9157435397441
91.8891692222134
91.8983155509834
91.870282909635
91.8958496669977
92.0099478128999
92.1864821127941
92.3456719098775
92.4547140436685
92.6521789445759
92.9014956190914
93.1091711864025
93.323888729522
93.5432885168336
93.7208983297111
93.9053780354082
94.0754039688261
94.189442628982
94.3232055906911
94.4321551371331
94.4819766757303
94.5275811147554
94.5531958048002
94.5736029992158
94.5347783640089
94.5375343983307
94.5759546726414
94.5331513010127
94.4092637175046
94.2833013095525
94.1508859045192
93.9738863502294
93.797886404669
93.7406813563043
93.7434048980808
93.7666923563199
93.8553097522585
93.9951668161438
94.1232121231123
94.1985160418687
94.216121660128
94.2412621519648
94.2839704077811
94.2860250746719
94.2898463271985
94.345552745163
94.3350829751743
94.3409587792753
94.415202836644
94.4909092544269
94.5158959324539
94.5044129333231
94.5251124511304
94.5823321739215
94.6030215697115
94.6265830668705
94.6539813594895
94.6673357225527
94.6497998859036
94.6845338109581
94.7768633792135
94.8005367960382
94.804769075105
94.8548655350754
94.9124965560072
95.0005720841094
95.0576090708806
95.0634327528956
95.0519802837264
95.0866487333373
95.1451354185461
95.2125520633037
95.2537260067315
95.2392309743138
95.2442467416239
95.2987469306828
95.3503677455816
95.3640448702069
95.386180772973
95.390240108061
95.3213718935097
95.3012787754882
95.3191350845044
95.3126598654057
95.3145591997206
95.31071726612
95.2834605939476
95.2804029430499
95.2995305236153
95.3086575746036
95.3125771140526
95.3426834549776
95.354676063097
95.359031156205
95.3665894701933
95.3876588438558
95.4310388481253
95.4659317471072
95.4381235807769
95.4100240878863
95.4260570079613
95.460603481117
95.4667324590809
95.4481849386619
95.459579525086
95.5140619189155
95.556414312433
95.5732111054491
95.5494674902835
95.5235278259847
95.5374856616879
95.5622766701505
95.5746919357174
95.5914836999424
95.5877967868651
95.5670801298297
95.5655859011835
95.5453034122484
95.5165508064755
95.5542609271507
95.5894032860089
95.5906600720575
95.5532016242951
95.5338122916032
95.5433116937588
95.5639662265614
95.6113650718434
95.6375634780956
95.6291923991217
95.6266250548578
95.6225075268374
95.6339948504305
95.6475724172632
95.6632752446388
95.6757186256455
95.6864848903229
95.697853089411
95.6961838601652
95.6870040380437
95.7300390410955
95.7701836089974
95.7560145552793
95.7255304227187
95.7245217734886
95.7675398499613
95.8060225402964
95.8142102043561
95.82748458642
95.8232241548193
95.8136282641393
95.8143294344905
95.7932120872789
95.7773396999366
95.7841768620299
95.7663551552174
95.7542299804057
95.7879735123945
95.8203925142339
95.8006483184085
95.7891061484065
95.7950952451391
95.7832558379893
95.7973620297694
95.8249106374919
95.7922800438762
95.7473116596502
95.7304595924393
95.7055482858285
95.6770961815044
95.6738922008995
95.6695754680365
95.7030936071344
95.7340948760936
95.6939060112856
95.6648438494371
95.700141209739
95.7222606685908
95.7368742469365
95.7507165330085
95.7479542021389
95.7691774337659
95.7736590895049
95.7553920228501
95.7655429028321
95.7531411518625
95.7040680841364
95.6826754876165
95.7547686319952
95.832657183151
95.8550666641099
95.8524414399503
95.8452410592962
95.8325044244875
95.8531322909034
95.8729710396628
95.8536571534295
95.8786170347705
95.9387447799612
95.9585184703932
95.9729721155415
95.9762423843095
95.9838527877794
95.967245445078
95.9115451068941
95.8991873772447
95.9287457924177
95.9263195099407
95.9451838554491
95.9499095442432
95.9070064775512
95.9283706061605
96.0115738664472
96.0876385009962
96.1385784281464
96.0922533541821
96.0174338154359
95.9872836498081
95.9892877396627
95.9969909245243
96.0191553179434
96.0460830043721
96.0691353383392
96.1047278176785
96.1212256489302
96.0850361897427
96.0578786551627
96.0412245693628
96.0511438046219
96.0736456452
96.0328554973304
96.0103434518334
96.0591731837536
96.0926388851423
96.0733383261567
96.0336836548974
96.0088679728691
96.0249767869645
96.090886531471
96.1089088757177
96.1278592620171
96.1904773416445
96.223222881656
96.1958432704814
96.1398535352339
96.0969211772272
96.1511808765775
96.2410081462324
96.2553897331169
96.2231385641378
96.1685407734929
96.1555703302051
96.2258231980763
96.2105859448846
96.1733940482844
96.2492148668919
96.271236311859
96.230861153692
96.2275364598835
96.2536076641736
96.3207988893691
96.3172255071833
96.2903860292171
96.2874661966764
96.2945612285992
96.2943524200342
96.2482825534331
96.2528684963941
96.3255229515719
96.3232224498422
96.2673038904696
96.221965073354
96.2317154699928
96.3640583734045
96.4149341741674
96.3526196161906
96.3011158099165
96.2806464416976
96.3377452452058
96.3299170173539
96.2805437909778
96.3442565801826
96.396384155469
96.3515273996732
96.3108026288802
96.3379409469081
96.4056996043284
96.4022008512592
96.3205706932871
96.2881217557337
96.33500754022
96.3236144934818
96.322055069166
96.389954465171
96.3780228960543
96.2917933342325
96.2866133853085
96.3370293142571
96.3120221700306
96.2237918872763
96.194687332988
96.240293223972
96.2739165467081
96.25403247639
96.2000586452612
96.1742103587713
96.1766651599134
96.2113711408046
96.2138288661927
96.1644525629371
96.1999963763785
96.2432243248737
96.1685200834829
96.0678646907063
95.9993021559774
95.9892627828362
96.017424681822
96.0619263796085
96.0958087615108
96.1767444332412
96.3279999982589
96.3896860658013
96.2859264517401
96.3844475575733
96.6298471018205
96.5614205763906
96.5132995555702
96.5597414148179
96.6171141620708
96.6901041053736
96.6813370901727
96.6328879203108
96.5500365068287
96.4521237379983
96.2747909282476
96.1653658281061
96.244831317417
96.3171029404512
96.3562797117973
96.4371919851125
96.5589930116971
96.5954882881092
96.430289981595
96.4352860304416
96.5473791760458
96.4345048060732
96.2594232859513
96.1399714002461
96.176681580747
96.2531665411223
96.3514578690048
96.3689340139385
96.3852954734394
96.4990075628365
96.5102537604202
96.4048881040231
96.3645918716347
96.405835404214
96.3798286533038
96.3496192204901
96.3964320158562
96.4334840548607
96.4067507912071
96.3684782615085
96.3273011528452
96.2694926489264
96.2508311341334
96.2872896664233
96.3891832470482
96.4389224290603
96.4383548718884
96.4732463446351
96.5064711881307
96.576680459149
96.7360156057693
96.8459264548316
96.8283602546604
96.8346395578821
96.8275181984482
96.8122202988779
96.9171651054714
97.0013639908719
96.9699718425561
96.9546860192305
96.9063324043096
96.9351023338851
97.0555787119889
97.0215513778878
97.0028374619263
97.0910292328737
97.1994445605017
97.2470854425407
97.1259919166831
97.0201846497495
97.1449196614181
97.2423434026069
97.3140307437269
97.4417862419983
97.4590995804869
97.4705382430061
97.4316660803599
97.2737754883913
97.3514337041875
97.6822580206635
97.8177873145513
97.6618026820454
97.7568155193944
97.8969858390855
97.7326822385158
97.6676557269991
97.6335894207364
97.5945082334801
97.6063054851894
97.7023401859673
97.9943841507583
98.0951379555545
97.910292834903
97.9201980831226
98.1566882916074
98.2707266777147
98.4440513858443
98.4127179487373
98.0894724447896
98.1989058553019
98.3564203731838
97.975098880376
97.7578334174299
98.1839251321674
98.4159632616499
98.2491783886635
98.3052565857928
98.3589721336357
98.5181026123828
98.8664030659754
98.6004008759912
98.4955941289141
98.682211819968
98.3532024875783
98.0971415273709
98.0978785745168
98.216893273514
98.3317247059611
98.2313543969876
98.0818496386263
97.918288973603
97.7940732301046
97.9494959039577
98.0658557177304
97.9193023306152
97.6174070637284
97.4668629176294
97.5150570004274
97.486203529164
97.4000728083742
97.3205248350462
97.2868841714944
97.3288774937816
97.2875087593874
97.082813713709
96.9722351187504
97.056746103123
97.1395467098855
97.1894606716383
97.1441338216043
97.1144248443531
97.1906506528954
97.128876159964
97.0727400433865
97.3083652877261
97.4455643934794
97.2872373663452
97.2091514834228
97.1957150751811
97.141534979575
97.144018195921
97.1510498715744
97.2050339601092
97.2872741410914
97.2631169154341
97.2886478014651
97.2841101451371
97.2690599288558
97.4305636095055
97.5564691695203
97.5779309972246
97.7303565296587
97.8611173183889
97.7710982968955
97.8846999933316
98.0993256604569
98.1011559474227
98.1868711655727
98.1798468996438
98.0357300727953
98.2884164223896
98.6046777286116
98.6020592014307
98.7253260327438
98.9893881319375
98.8965254487934
98.6651467218534
98.8011796640276
98.8436889265054
98.9930102075796
99.4190296831045
99.4922846707087
99.0386918914323
98.8110819444666
98.7622593130149
98.7913082964221
98.9167902694082
98.7702616923559
98.7664670316132
98.9793913995232
98.9362370901641
98.7606835079644
98.8017979640385
98.8923366967198
98.852612575339
99.0350533157636
98.9341064298808
98.5400400668583
98.3385891464084
98.3818488825944
98.3593901255461
98.4047907008805
98.5771337743717
98.4974436348561
98.2050104725492
98.0448064598778
98.1978655285707
98.4981431471671
98.5281208932626
98.6343035255066
98.9661231764802
99.2293914820229
98.8928316133041
98.3203233623034
98.0701763962413
97.9169778122923
97.8252659217572
97.8685944950925
97.8161777900646
97.844538094299
97.8406108743469
97.7707949361332
97.6829518264572
97.74324765025
97.6961911783385
97.4466876670515
97.3733843058881
97.363888679035
97.4313800379647
97.5572050455189
97.6478294879873
97.733472862994
97.7462271522639
97.7627985590858
97.7270172091302
97.7941112598132
97.8956407236215
97.9526784989211
97.8658867074827
97.8604622495231
97.7408661969208
97.6852873713293
97.8340352962853
97.9306105027636
97.9268071407851
97.826713565596
97.8582316247346
97.9342546070193
97.8916447514572
97.930794556504
98.0322423471089
98.0659502699594
98.0424417706264
97.9758317628444
98.0039256720816
98.007957418398
97.9206045474734
98.0151601632895
98.038427552596
98.0485453177933
98.0814066258407
98.0896935468033
98.0458423891627
98.0642695091076
98.0960271916173
98.088882989583
97.9049409640028
97.8223078063824
97.9923788100953
98.0769895406458
98.0551555634941
98.023686432657
97.9700214978853
97.9071081738171
97.894833318583
97.9294793437172
97.8660381031036
97.8166428656616
97.7479831614666
97.7187618128941
97.5838546047983
97.6578131214905
97.6650302423306
97.619099117277
97.518400173506
97.4633841375173
97.3949477825164
97.2983436260484
97.1843436328432
97.2986457752276
97.2218262395544
97.2183586797849
97.1866649391255
97.1870655028927
97.2233845202741
97.2405041786906
97.2402211702828
97.1970300460159
97.1597156701347
97.2005864803308
97.190167449412
97.1789808766183
97.1092813498582
97.0301079588359
97.0416725343894
97.1236572160619
97.110754474904
97.0764923889609
96.9705897088513
97.1506377594886
97.2174817039931
97.2097974467004
97.1723498954061
97.2381659145141
97.1560860217979
97.165082962806
97.1540631743601
97.0701314445109
97.0114964697327
96.8237749212131
96.919138578751
96.864466584793
96.862672224914
96.8442627292008
96.7388437483113
96.6128493158424
96.5173701095014
96.2314022730524
95.9719835019988
95.6867689395587
95.2631415147262
94.5834557877956
93.4843800288299
92.2096788045505
90.4727038666424
88.5290640886885
86.2299481341098
83.2798929743201
81.332925799829
79.6795223678349
76.7865100465287
73.9968340079706
71.5597083963526
69.209239498156
67.1433656428234
64.9310778510216
62.6516018620678
61.0372244231729
59.8123715284111
57.9170557681152
55.9937947551248
54.7577193738586
54.2655570821126
54.3168242009018
55.0595136541043
56.60803282028
57.5648720821852
58.8075249295872
62.3594604474848
64.1973740879027
66.6769424909732
69.4680078556218
70.459669747421
71.5098589767235
72.5868483622793
72.6659558972374
73.1643830424323
76.0731768171219
77.0859571145085
77.5471428554787
77.587507068601
78.5035940056943
80.0628794390743
80.2078939044445
80.8923611238948
82.7530507093158
83.4249305828121
83.3126566609054
84.2272016926183
85.5381798446977
85.9195681894872
85.5581827158254
84.1287060574491
85.7303487457742
88.7590341565918
88.2572276316781
87.4026827859538
88.715534273947
89.5495381364846
89.4414948426421
89.1663121540234
88.6426044581967
88.5810299223194
90.3147602386212
90.9285328189425
90.6045637064283
90.3536136230054
90.6099942025599
90.6635309752229
90.9361590863388
91.5090731133677
91.2283818037062
90.6615846979407
91.0750031049404
91.3361839914839
91.0403445098622
90.9819109661663
91.249293425323
91.6751995227079
91.9266483715107
92.2369708820669
92.5713714892387
92.850456176429
92.9904294855098
93.1453083622511
93.3129681790552
93.4415551936266
93.4705227751218
93.4688661479795
93.2679993998088
92.8463379813875
92.1221124682118
91.2574904124399
90.3057952096346
90.1339464286596
91.4894170042386
92.0643534697008
91.9478063685469
92.5261064420722
93.3425185862104
93.5065318350054
93.6454046968537
93.1660536834543
92.2222620638284
93.8416686163449
94.7696649895109
94.6695510281365
94.655365318189
94.4512233762714
94.692654475129
94.5786707728022
94.2839368120037
94.2453236839752
94.2143745726353
94.9342747410104
95.5295827520349
95.1893830491542
94.7469786009017
95.0474347399906
94.9958401622447
94.6441740851357
94.4211000047735
94.5210185833752
94.3466222945408
94.6938773834909
94.98998281559
94.9508279798119
95.2695438929239
95.1125650098389
94.5066316165321
93.408002986634
91.4993867016792
89.8732352937971
89.8498262435581
90.5378845265784
91.617231388266
92.776451166402
94.0448588044942
95.029885315378
95.2277199747772
94.9954691557658
95.0702702935414
95.1324569709446
95.0175993636882
94.6147815402396
94.0875252343497
93.6399381510992
93.0191681792083
92.3200476715547
91.5511286065313
90.9715822725774
91.1844344788275
91.373839750417
91.5067455983895
91.6419642209219
91.789920513377
91.343097689946
90.704531079981
90.3886858813025
90.8384986194822
90.7439589585568
90.6618046431513
90.6498960305663
90.8233110200859
91.2193940292394
91.3993265223048
91.49231110173
91.5812786202303
91.4786562213165
91.6791867239934
92.5601839808665
93.0144398134506
93.3970947444215
93.9531926532685
94.5053156801593
94.679830709572
94.7320979210269
94.797475797761
94.4407117407939
93.4376439927259
91.5728840354417
88.7278476680211
85.0500463172934
81.3923486701694
79.1207807891423
78.6598438156932
80.2241916582867
82.758872277585
84.6849226969952
86.2607745072316
87.8600867248451
88.8965847485289
89.9281002277518
90.6156364700091
90.8139268854361
90.8035432666482
90.9409954858788
91.1475519740581
91.151920995597
91.1378427556239
91.0830026078256
90.9640800706375
90.6336026154821
90.3943454116087
90.2425332874256
90.119560027965
90.3585664975517
90.8904375615724
91.3885424240614
92.0677994259282
92.759358670387
93.1338690488988
93.2332820235013
93.1414334575327
92.8340207214764
92.1901214684198
90.9593471092187
88.9369670782414
85.9725135882719
82.4543237373734
79.2465416237804
77.313338751434
77.5624902878563
79.5977471686455
82.6302053808746
85.8679227896267
88.6145246739821
90.5358837924825
91.6683947431376
92.1924257948728
92.3153096244375
92.2124411853143
91.9880013813396
91.666939101729
91.2656082581238
90.7988981589089
90.2916621292079
89.7220465351978
89.0989542646851
88.5376942080141
87.9964831695063
87.3732876260418
86.5875827751728
85.6108901782787
84.4482355728341
83.1860835074198
81.8899178092152
80.6330232195671
79.415849579819
78.2474684462089
77.1208066591424
76.0114094174519
74.8924213571072
73.7780697580561
72.7016391521131
71.6296744087472
70.5729695366321
69.4856088612569
68.3234865263778
67.0827605200658
65.785300973003
64.4772350307943
63.2600340525144
62.1702097610171
61.2525409846421
60.5335024522913
59.9553398636049
59.4194101436113
58.8243640261628
58.1215235590624
57.3718936167062
56.6097484434514
55.8784389582517
55.2330572822915
54.7476410395263
54.4500371054974
54.3519561652306
54.5147070737674
54.9739074230826
55.6447717874155
56.4382638760863
57.2802445153708
58.141814459883
58.9901262214784
59.8474169700735
60.8116273841912
61.9328043584446
63.1890693848446
64.5126353636528
65.8293485030127
67.1232846133217
68.3620040570926
69.5739444971703
70.7743990790215
71.9505559543707
73.1284342070728
74.3158997456922
75.4862894537828
76.6402394408589
77.7852734719232
78.9097342415801
79.9330767166826
80.8223218098803
81.6066387986498
82.2540136873637
82.6971778570692
82.9088126121105
82.9161141893196
82.8109900038169
82.7207054666793
82.8236499789248
83.2571537584666
84.0346711279725
85.0406484439231
86.0182579818597
86.757421143136
87.245830182956
87.5609764579622
87.7310447132605
87.7640558264525
87.6496371129985
87.3724218215092
86.9380008295846
86.3635274847054
85.6810821469509
84.8980418959142
83.9399710113564
82.7713113009051
81.4200854340407
79.8501140006355
77.986711441393
75.8548856225338
73.6409175892057
71.5282634057859
69.6435508417605
68.0314048323205
66.6481155158717
65.4097533835926
64.3238512421121
63.4628306019568
62.9207363126216
62.724525525246
62.8011100532489
62.9504791685341
62.9809796139611
62.7009471838973
62.004880499255
61.00838084604
59.9118707628875
58.846664705121
57.9091773850309
57.150166834109
56.5735498433491
56.1758040230259
55.9888826340267
55.9708970901271
56.0423135127777
56.1596468047612
56.354899868304
56.6675265223803
57.1567027548004
57.8368315649416
58.7030562714902
59.7209148904826
60.8455324153308
62.0322255893215
63.2354984534317
64.3818681438304
65.4735349436841
66.5427713098291
67.5553310280144
68.4951344551301
69.3696038138487
70.1165068097053
70.6795211942663
71.0476282417704
71.2468489107202
71.3395725950159
71.3672868986554
71.3562349081996
71.3950890454882
71.5472995929879
71.8474653009533
72.3124561409101
72.9299866940212
73.6853268859222
74.5869766558989
75.5670587971988
76.1883189419379
75.4997234608238
73.0357061915736
69.7905725521564
66.7378710803308
63.8149625582008
61.4137798043616
60.6423338763389
61.8191159471928
64.045881328541
66.3158984904676
68.2395930598563
69.808609761455
71.085898970448
72.1058028513756
72.9611441897783
73.750034611332
74.4274860519929
74.976126205147
75.4127013145229
75.7277433361123
75.9394238453426
76.1359088483013
76.3560732893265
76.5786051129628
76.6735293738833
76.5191082246521
76.0991867937496
75.4362537409847
74.6050092291955
73.8391066956195
73.3788164746189
73.2924007975918
73.5218334803446
74.0029256151144
74.6120498550714
75.2748405203817
75.9622816302483
76.599479582575
77.1593331793315
77.6732971958958
78.1651584748243
78.6012238044566
78.980654522564
79.3302785500354
79.6553259444501
79.967438750068
80.2604313981978
80.5186142921208
80.7559975224256
80.9830432182081
81.1988692781894
81.4226263501197
81.6641911335515
81.8893344919009
82.0879422549717
82.2997556394666
82.5284925641221
82.7420679031301
82.9581122778694
83.1548149321819
83.2513622857721
83.2601379200205
83.2258491218074
83.1011584506675
82.8999979730822
82.62307221693
82.2838060250425
81.9392624877987
81.6548712235096
81.4909636516872
81.4856738611675
81.6526982124185
81.8879108564021
82.0936126738537
82.2288543883707
82.250778878548
82.0281568560731
81.4658600391282
80.5373136125867
79.271999943209
77.6711090385678
75.5912579405506
72.5570668179649
69.4972235071513
69.0111141965182
70.9583256052702
73.1454450371188
74.7596037330932
75.8488266199996
76.5296469716592
76.9625312029362
77.1912005300193
77.2168506565444
77.1149721325376
76.8367589004955
76.3757327890499
75.8536907376162
75.5814494811537
75.6582478547804
76.0147977986895
76.5535100289902
77.1324570525493
77.6784643658336
78.2429457910974
78.8283128549323
79.4492577498025
80.0494168020412
80.4875579549557
80.8675672230975
81.2698490503715
81.6349690507866
81.8794948936921
82.0784611960921
82.308291786189
82.5110767979338
82.6519575088479
82.7720970713184
82.8992361346301
83.0002814698421
83.1239213889083
83.3411305183154
83.5961981901041
83.7810146677069
83.5252714989432
82.4711653238354
81.1753734415455
80.6101992765317
80.9921583001387
81.787765321812
82.6275248244728
83.4024972803648
84.1310824182301
84.7584222546403
85.2053824521383
85.6394259399578
86.1537294413468
86.654386011995
87.0791261599209
87.5048956157306
88.0072192276825
88.5027301902616
89.0039014575618
89.4999448249045
89.8721593882767
90.1964398696487
90.5634475033079
91.0806302732336
91.4816627011851
91.80417863331
92.0186332393051
92.1089559989577
92.0244297311174
91.5124713312366
90.1122601102522
87.5315517280044
83.8136854727087
79.4435320320243
74.9320583200291
70.5499554651166
66.3750991463473
62.1773246767179
58.0874173393434
54.5672611922939
52.5012601378844
52.0342409351571
52.519719011509
53.5885176122852
55.0139307421852
56.3626882076626
57.721032644121
59.0373169349612
60.224785560314
61.3513338136357
62.5298982090181
63.4525295176893
64.661180451363
66.109812397077
67.6422312209498
68.8831216854888
69.8443401235675
70.9116094607287
71.945971108166
72.599655882818
72.9167182476033
73.2065426170691
73.5780285170299
73.9335566268105
74.4137116053881
74.904262648578
75.3847454304347
75.8101960363061
76.0146945672773
76.3469404008287
77.7824777799662
77.7901338710158
77.7376473818532
78.0300075336641
78.2352224732095
78.4982007989816
78.7965240566439
79.1671532163093
79.5326004101299
79.6278604464175
