1798
3999.43349933624
650.420452594757
1
128
4
98.0012568549894
97.9416833450904
97.9256574488472
97.9703336177682
97.9875782251923
98.0058706842605
98.044636054958
98.0602023153702
98.0143108519202
98.0101538002738
98.0157034974242
98.0384254824963
98.1039832595874
98.067923297536
98.0187420613704
98.0221353447566
97.9771661957924
97.9910437175048
98.017520212364
98.0673026960845
98.0669723838586
97.9360406264345
97.9307377373396
98.0031095987221
97.9777865218738
97.973423585603
98.0638030244958
98.1175670416986
98.0678190835049
98.1082816304759
98.1893453025099
98.1470690318811
98.0961527340984
98.0496722020383
97.8743491186998
97.8474891749664
98.0074924497821
98.0746448061524
98.040325185788
98.0210557556664
98.0988023618431
98.0906227488433
98.0206164118653
98.0616025285638
98.1346377506729
98.0928468227036
98.0896524808177
98.1332498158936
98.0633130663878
97.8284899309378
97.6979704578282
97.800603364326
97.9729995002004
98.2259001855939
98.3628232384472
98.2575991632404
98.0140293865373
97.9763980075417
98.1128785940014
98.0387649408995
98.0777620174284
98.1987466909269
98.0789147009491
98.0502139610655
98.1254008907727
98.1227108457243
98.0756862072862
97.9222678553277
97.8563062092073
98.0244684271985
97.9929923843107
97.983199581513
98.1700274483196
98.251888716203
98.2114706184807
98.1134529389714
97.7916898460826
97.4697130363131
97.8637997557803
98.3123557825537
98.3945121520979
98.2794961660016
98.1085653773045
98.0180709624313
97.9696538735737
97.9473262102145
98.0730950934813
98.1593233023464
98.1606605406563
98.1876192550664
98.1777558907185
98.1120719397768
98.117961080776
97.9402650581944
97.7335293849682
98.0187511381478
98.1064960959744
98.0011907702987
98.2019887001088
98.295966663544
98.289242360177
98.172654181525
97.9648867710526
97.919790095011
97.8416704221259
97.8864788268231
98.0692069853558
98.1213738828487
98.139216750871
98.1598324997803
98.1440644701451
98.1106753005089
98.0731818128797
98.0073479174707
98.0594165452494
98.0646164290818
97.9528973036672
97.9644229323849
98.0660941376764
98.1371761678908
98.0857783652799
97.9413047105732
97.9215228164067
97.960381951349
97.991232760873
98.1324237871417
98.0776389592419
97.9344853839186
98.0108045167451
98.0678555972104
97.9416099963696
97.7692759903457
97.8493446920697
98.1722956926865
98.1824750472613
97.8912921746503
98.2242800124113
98.5754564349709
98.4803522200565
98.2093689345926
98.0038563528516
98.0101167734569
98.1378554492922
98.3191869199969
98.3476590700407
98.2469397092021
98.1747652366987
98.0659783079899
97.9873773230877
98.0437350820784
98.1778605131841
98.1275130285531
97.9870483498738
97.8878677815508
97.9267341481007
98.0550200414518
98.2314929514122
98.311394130287
98.1775653784493
98.1155428565527
98.1804359062598
98.1442321363825
98.0773583640614
97.9710751764561
97.8657348423186
97.7553436641344
97.8618790441935
98.144827383936
98.254603383679
98.2125910367946
98.1396757265577
97.9854160352745
97.6673206023869
97.7083857021208
97.9998543277451
98.0596972924112
98.1718877201086
98.3452522187418
98.250027188434
98.10062416673
98.0633093793235
98.0213671633484
97.7932512583049
97.7299714297881
97.8950225005712
97.7868657899077
97.5626256641343
97.5650906667815
97.9103795255889
98.1856615603317
98.2696685043899
98.1486156003662
97.9305696334025
97.8154309466386
97.7508445807501
97.7370313296892
97.7068113425827
97.5169803215766
97.6481102817206
97.9841570438425
98.0616459528685
97.9495916299386
97.9147122161216
97.9725382006295
98.0161588523212
97.9041920225844
97.8007645809755
97.8488164074016
97.8416966864993
97.871438068547
97.98015194379
98.0203758865678
98.0531327712968
97.9861091848017
97.8655891422139
97.7842742332901
97.8239318433738
97.9854135320428
98.0478159079606
97.9359050256219
97.883046302423
97.9848685642936
97.9911432229317
97.9335377947354
98.0263010830047
98.0827457270575
97.9845239585921
97.846031323667
97.8484039664749
97.9296635373416
97.8595748176626
97.827835389376
98.0618977142396
98.1185472255184
98.0562438458117
98.0698347249812
97.9969229889737
97.8608310573669
97.8664276367678
97.9262049525523
97.9478362662546
97.8563773189093
97.8494333893405
98.0550561210569
98.2536102542543
98.1941805981517
98.1162071491624
98.0680814559287
98.1162185897105
98.0970239822623
97.8338091198091
97.8204570194361
98.0143949525435
98.0716915644854
98.1304428878663
98.1996921092786
98.1381577280516
98.0855662211484
98.0567347074758
97.981448574983
97.9780641214055
97.9761861399198
98.0098987057665
98.0489042913983
98.0307412710902
98.0745615344519
98.1506602016599
98.1402222725578
98.1051821259729
98.0560094000893
98.0994052506402
98.1218279081474
98.0479956100447
98.0144551459694
98.0435987548436
98.1439802432829
98.2487817193121
98.2126425214876
98.1796951876303
98.167132477052
98.1831518045983
98.191754823118
98.1014074904367
98.0213539174628
98.054640103267
98.1392977839698
98.1839789846145
98.1019601376045
98.0696659839976
98.1335347153967
98.1762276374579
98.111137510929
98.0264305014924
97.9829367130825
97.9182819235809
97.8643828128244
97.9452013417458
97.8843807661808
97.7927093416564
97.8006586930673
97.7737498738847
97.7779346896777
97.7227468157812
97.711747749633
97.7389138519419
97.6581435494335
97.6109914373483
97.6225006086419
97.6825259501659
97.7869544048085
97.8064583618502
97.7424698803844
97.756322061624
97.8363201762572
98.0049817298124
98.099834881646
98.0447459701647
97.9481152461827
97.8701733465616
97.8196626559253
97.9086790558533
98.0037282556774
97.9810520679255
97.9386912492186
97.9588556829478
98.0048135017611
98.0913880079948
98.156207748633
98.1066583194784
98.0165712174183
98.0968953107814
98.1709749230732
98.1050385458017
98.0737637876558
98.0148508978379
97.9551015521166
97.9872607810798
98.0175234696344
98.0508705029201
98.1607213241669
98.1752900373267
98.1127553127707
98.166415992935
98.161655203819
98.0701953701439
98.0278125299265
98.0624430347157
98.0390838786798
98.0205813161192
98.0717508290627
98.0682741136845
98.0992032436228
98.1848025039134
98.1423312541616
98.0475990120513
98.1097415554071
98.1310883362988
97.9886767173508
97.9897315286882
97.9975743006639
97.9513187688195
97.955035330407
97.980517107138
98.0389108473287
97.986212369263
97.9416401791642
97.9989925063911
98.0443211569131
98.0627890915367
98.0671703786707
98.0413552830604
98.0187270705823
98.0085787654798
98.0751385115811
98.1372537453244
98.0905260562317
98.0328167990238
98.0300109463408
98.0480636218118
98.007313439591
98.016553835114
98.0695643170951
98.0691973615002
98.1032155410914
98.1470240620034
98.0970536771326
98.0152169837877
98.051440082991
98.1048659956674
98.0746210468952
98.0759613240171
98.0797580517223
98.0130697542485
97.9604515587267
98.0131228498489
98.0759178345554
98.0565042023145
98.0066533292745
98.0520563057046
98.1482363675117
98.1577524486367
98.1177105695612
98.0858964586387
98.0511757133407
98.0808360327669
98.1224273827943
98.0450681658539
97.9931901467673
98.0706636252411
98.1377539783676
98.1375336223764
98.1787628007695
98.2014578474102
98.163463860884
98.1289786359342
98.0798559810548
98.0585656114187
98.0491620330929
98.0338983924003
98.0579616394378
98.0965758299724
98.0771085066725
98.1081838885917
98.0910673631976
98.0050700601751
98.0294635970295
98.1031492446821
98.0764370304161
98.0249658141376
98.046226277015
98.1312901563123
98.1336265195564
98.0971887818516
98.1500939126701
98.1281406656104
98.0888434041399
98.1314631610914
98.1295175325925
98.0510487619028
98.0476132680829
98.1028799623764
98.1124203146737
98.1173644783158
98.1137185145834
98.1125351134641
98.0920154475838
98.1003951272872
98.1404386078746
98.1431725334201
98.1283888812858
98.1418673262474
98.153395611227
98.1533203164051
98.1537799477755
98.1061888597105
98.0831822860544
98.1532785443859
98.1611074821473
98.0854805919923
98.0397369225844
98.0089092971326
98.022136905166
98.0676562383343
98.1011726823891
98.1031160013753
98.0084258672884
97.9549734182093
98.0390190804882
98.0797884991241
97.9862225474481
97.9584074821081
97.9841790557022
97.9437588279262
97.9397555395248
97.9345368854456
97.9119999803465
97.9495931747736
97.9454704139938
97.8688189051465
97.8229776651957
97.8786656379299
97.9304227776091
97.8819828889613
97.8566412882505
97.8733518812022
97.8833470120471
97.9040538974204
97.9128901592288
97.9455667518455
97.9545284059605
97.8628627684891
97.8115479207771
97.8526800503835
97.8765464762111
97.8084331114073
97.7776401210022
97.8045573931767
97.7966971719103
97.7499693792134
97.6856890696783
97.7222012555102
97.7670231399014
97.7437500164597
97.7632611117548
97.788270552361
97.7627611080932
97.7048075722709
97.6674234574556
97.7015111405194
97.7939018560234
97.8633216464857
97.8817372081339
97.8698286674804
97.8507645249564
97.8766325200315
97.9404176817064
98.0070876934779
97.9880133366859
97.9467485428488
97.9750426253998
97.9805345333689
97.9552517006088
97.9194145343401
97.9129344308488
97.9180248879661
97.9261931193004
97.8472356286006
97.7219064103242
97.6532399128513
97.6067344753302
97.6074909939687
97.5710470724071
97.5195721919778
97.5099635463632
97.4816514767253
97.4574201259551
97.4627612759472
97.4491764956981
97.3797138269599
97.3235591524473
97.3267696132415
97.3179524586572
97.2823922299268
97.229553744578
97.1626843444612
97.0585386734189
96.9595857834814
96.9016253192144
96.7998091999839
96.7090825751735
96.6507454792939
96.5753619521093
96.482245442672
96.4084883477591
96.3939792757097
96.3548411429628
96.3314692866066
96.3963297100186
96.4811424216182
96.5410837140783
96.6039083972845
96.711479052896
96.7961100235091
96.8224186353468
96.9104044484569
97.0763478254623
97.1984432028164
97.2476155608766
97.3100042817169
97.3603473894807
97.4022013907566
97.4691086637821
97.4888729553632
97.5167787017643
97.5643441862942
97.5653364109976
97.5663443479907
97.5636585563144
97.5371866125132
97.5423582583535
97.5487283010186
97.4953536988327
97.3858196586008
97.2915791026046
97.2442052841088
97.1989775766743
97.1775151634308
97.1635184434221
97.1635670051551
97.2420098658806
97.3435253926715
97.361640684933
97.3531680493526
97.4037714786894
97.4718030405452
97.4519304592728
97.4141128498595
97.4678694540623
97.5211373648007
97.490076778555
97.4553784740692
97.4708540668436
97.4805818166026
97.4999192957712
97.5616770018783
97.5807223575263
97.5691200705348
97.6200027090869
97.6485074341876
97.6567159890945
97.7024711826518
97.6824996953963
97.6271831306298
97.6213892372295
97.6244618195883
97.6145182768084
97.6673153041034
97.7374775976291
97.7799909616971
97.8407935106135
97.8537319363319
97.8543107781453
97.8793164419187
97.8488527642208
97.8196207878721
97.8823671140287
97.9506318333412
97.9382077654664
97.909162272115
97.9096023532623
97.9198385532165
97.9497782033617
97.9717774229099
97.9608931132868
97.9403080094893
97.9428672207246
97.9550371403655
97.9470921773198
97.9323324693587
97.9204677358063
97.9351581448431
97.942787749716
97.9311693700171
97.929758085999
97.9282961523113
97.9528890546578
97.9984530512933
98.0007686237509
97.9679556114767
97.9338480631002
97.9657035656547
98.0147295067725
97.9996752500002
98.0005664285026
98.003553694371
97.9968909102933
98.0397035506727
98.0748490078828
98.0770746483365
98.058334004295
98.0393914324618
98.040483522975
98.0419130780526
98.0533513503687
98.0618601538773
98.0631501996222
98.067785358479
98.0883405622283
98.0960980825031
98.0631265072134
98.0498429598957
98.0984984385961
98.118646253305
98.072982102626
98.0530478884011
98.0501954388256
98.0484255416036
98.0595810589637
98.0715368293206
98.0992720490264
98.1311810156769
98.1114084717995
98.0555963814976
98.0805188896043
98.1284908080315
98.1209492350867
98.1419944579659
98.1535249587854
98.1296087943248
98.1345394795831
98.1523680863715
98.1807038438233
98.17882010873
98.1275540219823
98.1250569806167
98.1540934583948
98.1471628731931
98.1488417137624
98.149136613989
98.1198048960344
98.1387184194094
98.1575615776955
98.1492010776395
98.1909059815698
98.1946621930743
98.157083209381
98.1531978290449
98.16151807824
98.1787926270537
98.1941166635887
98.197021228788
98.2056616094004
98.2061383218897
98.2013902804131
98.2045298411482
98.1845930356392
98.1294228830561
98.0910305032182
98.0967674481692
98.1305467258822
98.1650223514294
98.1576916788965
98.1354032076266
98.140155049121
98.1515479449934
98.1424126333189
98.1413844537641
98.1638479589973
98.1674748036523
98.1393014396738
98.1167730684054
98.1249937947013
98.1177831198845
98.1258309094293
98.1664561744994
98.1911584879716
98.1914222108572
98.1943128622662
98.1993440650484
98.1790966804114
98.1679970350601
98.1958524680719
98.2156630810223
98.1873872264913
98.1536810732927
98.1643834822354
98.1884705302127
98.1711054453296
98.1522306385118
98.1721349917961
98.2091014186331
98.2568896847053
98.2922745621462
98.2983582151768
98.2711079012666
98.2667111954944
98.2735854508901
98.2156250586643
98.1645277417014
98.1625053634287
98.1849859731086
98.2124088594377
98.2105387534204
98.1995346062259
98.1910133357596
98.23454184983
98.2723943299355
98.2727666521431
98.2560844683665
98.2451982705984
98.2777750564115
98.3200115347994
98.3383292730421
98.2990125122613
98.2328664787607
98.2298162843371
98.2745347155285
98.3130942016796
98.3435553365411
98.3577477877272
98.2711531813933
98.168477505308
98.1964532121408
98.2424541931129
98.2485380637701
98.2856000509474
98.3261407604185
98.312488084096
98.2475480345478
98.2196855620879
98.2671698526138
98.330061776941
98.3100314726772
98.3145754114434
98.3905898755994
98.3283312754228
98.2569229308535
98.2973464037637
98.2897702975364
98.2554187561772
98.298363159304
98.336582204467
98.3286619363509
98.3590503944335
98.4011150773359
98.3856596762282
98.3540187465261
98.3524115534701
98.3175468491317
98.3092364044583
98.3854443320146
98.4178654058645
98.3892047891849
98.4201409232804
98.4691783837539
98.4208363239125
98.3236383405131
98.3364047290721
98.3802317295895
98.3574883706762
98.3590077641524
98.3447814389492
98.3594494442824
98.4334390308252
98.4638835996778
98.4659730879857
98.4122442846424
98.3454818068867
98.3453080032408
98.3667833291782
98.3335639342492
98.3267305225972
98.4446163220932
98.4672382628705
98.383544438641
98.423684794507
98.4443159943661
98.4049115235791
98.3924783874803
98.3607723953661
98.3748092176313
98.4395223574479
98.4889398069747
98.4578755813664
98.4088397652799
98.385597208446
98.3875607222501
98.4414163508502
98.4299897892526
98.3910526097689
98.3715499921564
98.3609215124823
98.3489799717687
98.3689926982309
98.3569767720455
98.3002485492613
98.3090960592065
98.3466749181092
98.2986289081604
98.2830067046994
98.3775728643832
98.4082369358105
98.3547633352311
98.3197464253135
98.3451478053259
98.4072302603133
98.3554033266299
98.3209640708886
98.347191579461
98.3477414541513
98.369775126138
98.4136504904426
98.4122134957555
98.3605402261383
98.3489776628542
98.3950850977428
98.4771482921816
98.5375165908775
98.5841597479036
98.5604140768764
98.4870585318457
98.4986753555428
98.518979012429
98.5204526916717
98.5343996623222
98.4685910070441
98.3867354178747
98.3558433260688
98.321517329525
98.4188697238067
98.544714724075
98.4722296565127
98.4160783299
98.486170888094
98.4786166086512
98.4714145875641
98.5766838889385
98.5824937213179
98.4310101520805
98.3055569470536
98.3023765758907
98.4061670488868
98.4695059572062
98.4834537784654
98.5293351758586
98.5266431153911
98.49349609169
98.4939157783863
98.5159238628241
98.4942604315296
98.4162310913994
98.4146748477487
98.5032652813365
98.5361412979338
98.479523627497
98.4601466582835
98.5187021092543
98.513416750053
98.4669059753465
98.4952751886148
98.4624636997054
98.4041423704112
98.477633826874
98.5322395793363
98.5311149769447
98.491897479173
98.5241449758023
98.6769739637975
98.6631178655007
98.6250183703271
98.7361209040308
98.7966251177839
98.7606952747448
98.7575046848932
98.6767384103138
98.6344281203168
98.7147673655336
98.7436645111498
98.7110432606549
98.8130003407593
98.8188440870772
98.7587813573252
98.8546052732214
98.809397453144
98.7707299462544
98.8529595778433
98.8498806121091
98.7235914538446
98.6955396278388
98.7970009152237
98.9906606226435
98.9616421163164
98.8198998514863
98.9193442814663
98.9097077210984
98.8460483545098
98.9094391572922
99.0682013009851
99.0866607498073
98.9875318885209
99.0390790436896
99.0265358324828
98.9234750763768
99.1393180259542
99.2831428841366
99.1045259801387
99.1372344854414
99.2872440428562
99.2511741499159
99.262145967525
99.3185847489521
99.241417048328
99.2968764470839
99.2167239511506
99.1933640764845
99.3425525412049
99.3437629093113
99.4651276860154
99.4143048784759
99.1693823935195
99.3181971589081
99.4783915200179
99.265680610279
99.007819474908
99.0243900270672
99.3519828277349
99.2993417282544
99.3475364247556
99.752775026517
99.7937279073897
99.5206119329395
99.2965497934976
99.3040645832253
99.4023201482491
99.4070782001002
99.3194836759009
99.1645408725021
99.0929935777974
99.1629925002671
99.1122462126681
99.0897583833797
99.1390956517946
99.0328254102488
98.8887295264419
98.8785232303679
98.9544100370144
98.9055411020535
98.8831667843579
98.9692099259698
98.8475305760254
98.681934243502
98.6470803412628
98.6872391270882
98.7806226917809
98.7462611542722
98.761680743397
98.7969732231929
98.7909263556318
98.7419145248584
98.5932524462195
98.6784832155329
98.8739109127352
98.9177638331864
98.905351117929
98.7722465630342
98.6690973833091
98.7668880051351
98.9589120016507
99.0017104049719
98.9484076707466
98.8868109242167
98.8788027681892
98.8613620884463
98.9526915822095
99.1502798316114
99.1580596648619
99.0925675387461
99.0216846426343
98.907424006407
98.8853096010257
98.9113586890614
99.0621727408357
99.2665663119939
99.2636432270664
99.2598682425214
99.4033684229087
99.3943379753882
99.4385950501433
99.5453730853238
99.5591691804072
99.7419508508023
99.9130432056111
99.5808960793141
99.5423082405944
99.6838150315078
99.6936492854417
99.6025971302792
99.2452489904548
99.1117204599263
99.5000140226165
99.7990584239891
99.7208932712642
99.5146659904615
99.6284472717879
99.773733611961
99.7889321982777
99.4958763785704
99.2878602140548
99.3852425347303
99.5673903274053
99.525681482466
99.2976460559791
99.2773404785557
99.2908137298903
99.3787808289349
99.51009959166
99.3080903118263
99.2102222622442
99.2367290388005
99.1537355316388
99.2311479963297
99.4902794634932
99.5359828440549
99.5840437714365
99.5153895549702
99.3668816885792
99.1830738732783
99.398302627913
99.9120593385415
99.7852886338169
99.3226567592666
99.2865476565152
99.4464480568731
99.1435810663912
98.9106319319482
98.9883748534085
99.0473631143933
99.1220627888927
99.1048364315888
99.0950035672436
99.0774973583833
98.9493736109119
98.8453391246417
98.922196029353
98.8769746600571
98.8246018894827
98.9163955864434
98.9557489272509
98.9592726562021
98.9962723881571
99.0750886725497
99.1887608893542
99.166129755385
99.1433143803562
99.1537134871729
99.0781739243321
98.9806611063781
99.0198538199669
99.2237533999574
99.2391243863225
99.1243567913343
99.0869042020059
99.0878971275368
99.2092005653274
99.2979371721419
99.232486558572
99.1890757645306
99.2678192443766
99.307420325064
99.3697991442449
99.3346460889241
99.3083806038532
99.3302788681032
99.2683388906731
99.2490291846399
99.2931955893949
99.2823400876873
99.2789611518373
99.2308105545907
99.1681437208969
99.2519903570167
99.3400786890216
99.3036406114846
99.3094322985819
99.2792565723163
99.2702674683492
99.2728968302659
99.2519319773127
99.2542395074669
99.2242453529172
99.1614679453972
99.123799899678
99.071707076343
99.0670720416693
99.0851849753143
99.1042209193046
99.1121838636479
99.104241741887
99.0520073340028
98.9697671931912
98.9443744836119
98.9582176646164
98.9207232468706
98.8617044846604
98.8571055578756
98.8671282485574
98.8353771372451
98.8247712200016
98.7723007294638
98.7839550769228
98.8282788157094
98.8516000801801
98.8259413321212
98.7976592841791
98.7831830032109
98.8153809165505
98.8121769888839
98.7634224512221
98.7342542398301
98.7361335310312
98.7405786483278
98.7719301490759
98.7651788930842
98.7346680376099
98.7160783854567
98.7589268268781
98.7472919713067
98.7331272548448
98.771989873898
98.7696097213908
98.7032795579769
98.7236694019461
98.7272454482874
98.6830383567795
98.6381441142418
98.6697452234476
98.6520243236635
98.5867708368288
98.5441512719283
98.5173109221076
98.4904947150266
98.437053055701
98.2684891526159
98.1270789784509
98.0180925100647
97.8511346333734
97.5899993302494
97.2064994078867
96.5918173414753
95.8308718135037
94.9390690412146
93.9042249004049
92.6741320620994
91.39227408116
90.4138124977654
89.1875198833079
87.7442612424017
86.7257111470273
85.6323911407582
84.6516118277069
83.7100128627571
82.6959776950017
81.8309691470575
81.0218199271232
79.8069099794731
78.8257295309535
78.3809476834441
78.2871851608868
78.4240226532247
78.7073028033195
79.1178327784478
79.8267473020771
80.520645578252
81.1192468823441
82.360132644131
83.083407902105
83.9852857569651
85.073089489115
85.4778472998882
85.907232287746
86.4043261581771
86.3651779861425
86.6442364187909
87.9027976024718
88.3672223782566
88.6074485432547
88.7218748226684
89.2174766678708
89.8868702758793
89.9171221742152
90.3458190860432
91.2699465864478
91.5021018320034
91.4501946923361
92.0090506669753
92.6284775087331
92.8361432997119
92.6538072137392
92.0886670885574
93.1675392889929
94.3322710674142
93.9391054217412
93.7212005055023
94.3914596109599
94.6895089736604
94.626205270697
94.5191097612165
94.2640845120463
94.3897234907403
95.2144914145635
95.3851453166369
95.2026287725004
95.2048449816441
95.3908782802035
95.4127921683186
95.5705082526082
95.7765894610755
95.5701338009462
95.370846314618
95.5913389330863
95.6166399720635
95.4796297778172
95.554116434065
95.7829984595693
95.9889884068475
96.1092674380956
96.2469518268922
96.4191277022828
96.5682750791285
96.6816165417664
96.7865353859042
96.8374509643434
96.8569406751158
96.8369108639238
96.7834937272513
96.6849982651358
96.4919352120801
96.1604694074379
95.7816819259148
95.4030579368063
95.4401745500657
96.0103403201428
96.2058020645208
96.2552773313184
96.6737340930359
96.9716187460796
97.0522984465902
97.1255274532132
96.9350214951823
96.8002416309421
97.5286231801995
97.6589702703985
97.5950749827757
97.6084110901092
97.6121699520907
97.6568937989598
97.63612366375
97.6418471155826
97.644073580843
97.6389356443408
97.9260258421632
98.0050668638118
97.8364072328464
97.7950504655844
97.8964735440018
97.8274001937969
97.6979961408318
97.6615095586634
97.6610786226859
97.6603026694411
97.844896378876
97.879209208231
97.8683493050849
97.893351412025
97.7638892047708
97.4869883540239
96.9944902961419
95.9943720395845
94.980820697182
95.0381549818324
95.5218016280767
96.1838250659308
96.8777932905492
97.5157731259362
97.8544836021461
97.9131857699183
97.8911639184904
97.9022767800119
97.8528928347274
97.6363643663756
97.3359704146635
97.0822548363363
96.8494938870679
96.5456484756774
96.1667558260101
95.7569087915367
95.4956537838486
95.5711217100267
95.7236950779469
95.8702637025986
96.00371317868
96.0264938514934
95.8389014988359
95.5852060952354
95.4398586810158
95.4990504652918
95.4478612640644
95.4258563111365
95.4821327945168
95.6118312999547
95.7658229494179
95.849792291846
95.9458248603907
96.0197518401029
96.037799713584
96.2681277861969
96.6385821668235
96.820295126595
97.03307156823
97.298573725347
97.4740864268106
97.5202475954606
97.4858067056321
97.3370145933483
97.0212720298337
96.3669908698018
95.2468331916947
93.6782876841578
91.8731075213701
90.2398289383275
89.3863850824322
89.440404302551
90.4008226966291
91.6980580160192
92.6854358292425
93.5458423484941
94.2953354816821
94.7813716634926
95.2325541873483
95.4738701567645
95.5084297195109
95.4907630720099
95.5246614506611
95.5590833304415
95.5788232071577
95.5724274669146
95.5426164333605
95.4901022404313
95.3934702679266
95.2820215604432
95.1917924130076
95.1869874089367
95.3841712903222
95.678508521375
95.9775227923638
96.325486279526
96.5644113582573
96.6447517767822
96.6197191447522
96.4782975717715
96.2182024181155
95.7508831779722
94.9610083169672
93.7658220863614
92.1830656903539
90.5129428581542
89.2061144671613
88.6379457956095
89.064500591323
90.2995446725921
91.9259351390099
93.5243897751457
94.7826757970816
95.579255678543
96.0024194358948
96.1582479499261
96.1471424626504
96.0574685989225
95.9094148100206
95.7152153402694
95.485949954348
95.2471775208971
94.9797852455512
94.6718977148565
94.3634146826767
94.0618484736277
93.7548470168152
93.4264170488533
93.000760726142
92.4753654758058
91.8716542831446
91.2182419335568
90.5773382220613
89.9544968039175
89.3333056588061
88.7269343059099
88.143392111899
87.5688072258361
87.0014348087918
86.447898439329
85.9075704488476
85.3671273807553
84.8199491390882
84.269192495671
83.700812777422
83.0882033629714
82.4575074178129
81.8577282406728
81.3079244550622
80.8184145595634
80.4070127396487
80.0802445213407
79.8165752324045
79.561391770704
79.2764422804102
78.9724620389269
78.6463995026895
78.305311428659
78.0053635103213
77.7731974550502
77.6122709413663
77.53831088396
77.5798448404562
77.7314609896873
78.0154793942601
78.3566196578271
78.7234516952613
79.1201738232214
79.5123404168736
79.8902226899855
80.3078958297331
80.7893577248785
81.3247082751407
81.8982947572517
82.5101183980017
83.1146808401338
83.7082272427833
84.3031073930935
84.888105256117
85.4461294738902
86.0069188186075
86.5722880030582
87.1362267799499
87.7091391734153
88.2759936832229
88.8386142673494
89.3836370883419
89.8610788583457
90.2993212594313
90.6881230480058
90.9817838409283
91.1573580982474
91.2412050152231
91.2549610299408
91.2232545283296
91.22612113737
91.3415190540452
91.6213004728142
92.0685393356733
92.5936808914222
93.0750025742745
93.4399457858286
93.6737089505147
93.7826726149621
93.8216743411478
93.8168674682535
93.7114995614159
93.5134854499964
93.2465303762955
92.9029950368207
92.4922325195319
92.0099370954918
91.447330556
90.7881877079484
90.0150677517252
89.0960201777066
88.0576419237941
86.9476192805241
85.7905221562867
84.7361813276871
83.8786498966923
83.1587246951106
82.5377475736317
82.0094086597448
81.5663732212298
81.2221711629271
81.0315512073498
81.0007642814102
81.0524999923315
81.0885438257107
81.0142304408336
80.7744367482394
80.3750243482522
79.8824168139132
79.3680759229733
78.8990318790651
78.4937155086534
78.1681155285167
77.9479358392515
77.8263258933184
77.8137480568719
77.8566115790875
77.9207065665189
78.0133010190571
78.1648363411877
78.3642298132575
78.6207886671604
78.9650250717739
79.4185017416156
79.9481849237573
80.506064154108
81.0647021114098
81.5999386867555
82.1218949798863
82.6389072581916
83.1370812293375
83.5965421906499
84.0123159164524
84.3916838017779
84.6975167527501
84.9330166910483
85.0808006135788
85.1469388782236
85.1772315372388
85.1857519357263
85.1972370120277
85.254856222005
85.3797757411582
85.5528802553882
85.7885974639157
86.1114490787423
86.4733710734308
86.8716572527761
87.2790704101838
87.4240206032912
86.8204341531111
85.3601563666422
83.6814503816852
82.2693978477431
81.0153202483976
80.1259011701885
80.0949137314222
80.9220969281022
82.1121673248127
83.2153464208287
84.0893417187676
84.7866932871729
85.3220847533361
85.7712728073157
86.1478867533006
86.4769466854898
86.7916523947247
87.0595071496072
87.2605234364817
87.4102607276039
87.492065093898
87.5496678036223
87.6553535063677
87.7699342775992
87.7806926693823
87.6670722490284
87.4168831655562
87.035364482936
86.5761229355107
86.1887874666437
86.023777984515
86.0742060394457
86.2811486564749
86.5842990088541
86.9309814738301
87.2822237205233
87.621610943947
87.9192648761984
88.208773962584
88.4954500084464
88.7255580545658
88.9400954149899
89.1476053712937
89.3365973959471
89.5279140160515
89.6767203422938
89.796077060607
89.9016508696482
90.0274119389729
90.1532830265733
90.2643012007532
90.3723418710981
90.476585625035
90.5918854154968
90.7217010604358
90.8478857996519
90.9746361209691
91.102987518184
91.176173399359
91.2297871230945
91.278321171274
91.3239594489022
91.3023608314678
91.2087094502241
91.0671650634298
90.9070142744304
90.7361173674404
90.5895196482135
90.4684760311401
90.385711134276
90.4087176463984
90.5378566911337
90.6736204605062
90.7289692962294
90.7569793475653
90.7552604650216
90.6132174862188
90.3085381779757
89.7572964740595
89.0048752641815
88.1079156497776
86.9207514613475
85.2691135084232
83.8142372814462
83.8235160782144
85.0203079249059
86.2018600234734
87.0389597524238
87.6257957653456
87.9382169853606
88.0155626278867
88.0219887875507
88.0459553160383
87.9522072018417
87.7500252045688
87.4678320526774
87.1983598170946
87.1067946564155
87.182506722619
87.4103436243546
87.7379527554153
88.0916378807888
88.4090611962755
88.6435836952401
88.9391097118861
89.3465020645118
89.6609821326952
89.8269819674051
90.0177850744508
90.2155235693873
90.4178894053543
90.5890950926556
90.6785980189634
90.7534372619093
90.8481640560752
90.9301054179857
91.0525694736592
91.1615339282438
91.1870080212062
91.2438567310496
91.3652062685248
91.4871777956982
91.5458802691914
91.4254374174239
90.8519905351286
90.1378077955202
89.9909441513285
90.2916222242222
90.6896153748388
91.1582813870322
91.6072625374163
91.9139793526935
92.1746580812899
92.4376660114505
92.7261907346562
92.9816643132493
93.214729447078
93.5095710979988
93.7519391621321
94.032901677716
94.3457121383546
94.5112363576707
94.67794117929
94.9133201459071
95.0790445443933
95.1955314165078
95.4571243493325
95.7644404974236
96.022325407511
96.1761765507132
96.0642474266527
95.8096923756335
95.4913510048544
94.6854470731539
93.2529419082444
91.2452113259153
88.7980525098152
86.3554632218727
84.0841411700416
81.8740568106557
79.7370768486815
77.784847818752
76.2429449146698
75.5149831703883
75.3952530394782
75.6480907097525
76.2655202133891
77.0246587253937
77.6454779161768
78.1911919601052
78.7499444696812
79.3212376551841
79.9143646683941
80.4410410200894
81.05292095716
81.6459510204631
82.2263694457801
82.9135326084907
83.6784384243423
84.3641337226347
84.6860112098469
85.1402266061187
85.535761467559
85.5489864037358
85.5989656578599
85.9725430586419
86.2145931935758
86.4088561013201
86.6514634389043
86.9436015505954
87.2001457135656
87.2914988838145
87.2191453742452
87.8541375417512
88.1749686044075
88.2772915056877
88.4314657027548
88.612159365005
88.9971712781023
89.2476195559342
89.3378306217397
89.8225620031071
89.2262363373185
