1798
3999.43349933624
650.420452594757
1
128
4
98.6950505907672
98.671462722324
98.6812538687258
98.6713369825387
98.6858001706227
98.7059787768486
98.7285758208243
98.8011361477407
98.7987235671056
98.7120880938005
98.6580656570873
98.6214316962655
98.6759555755069
98.6988801413929
98.7096744553318
98.745525825685
98.7338911603336
98.7427425780734
98.7573621656512
98.7710469923418
98.7571736469858
98.6255448767687
98.649243612543
98.7284127649434
98.6879086397386
98.6788889179497
98.7684333091862
98.7865347439242
98.6700912237153
98.6837251760912
98.7832697496022
98.7940538248586
98.7540173085367
98.6863646681424
98.6102429641533
98.6092480176174
98.7393208963242
98.7338381607065
98.6655995289476
98.5930433260545
98.6394978921595
98.7644882211475
98.7139825291907
98.6535362063582
98.7045861370345
98.6721170508631
98.6889033129195
98.7119892394861
98.676830246144
98.5826293316184
98.5681890206501
98.6650085971643
98.6827638759081
98.7405455787077
98.8022156353898
98.7454312386614
98.6241446952694
98.6860771286841
98.736835706728
98.5808846287094
98.6274080880913
98.7623940988069
98.6667974456088
98.6619633885856
98.7258912829076
98.6652950994376
98.6199522589433
98.5237310418782
98.6396884512812
98.7900011856454
98.7311666354676
98.7503779856083
98.7650627026892
98.6744056029405
98.6620218605886
98.6701530855663
98.5159477751658
98.4445803209146
98.634332744909
98.7918969285502
98.8449818208491
98.814752242956
98.714956540108
98.6382199718026
98.6000212255366
98.5824427738131
98.7063641959971
98.7564308808676
98.6497179730639
98.7012792975562
98.7127932844313
98.6333969835673
98.6644351486517
98.5292814529645
98.4266313410808
98.6821717922583
98.644394460267
98.5404016552413
98.6619747870104
98.7661455513956
98.7993089372914
98.7461522819668
98.672539646571
98.607698992377
98.469785367067
98.5645365035897
98.672260136384
98.6208234792667
98.6558265089587
98.6762951552563
98.6520671385716
98.6782045568754
98.6904580713
98.6782130753931
98.6771010052412
98.6402413506222
98.652943863524
98.7343457360002
98.7265605304959
98.7027770758959
98.6325034994058
98.5078352620705
98.5224709865928
98.5660885792528
98.5628877179358
98.5421907625969
98.4795522795216
98.5182673707683
98.6029951046987
98.6391372869336
98.6091002590888
98.5156294514286
98.4832257357088
98.7260919522273
98.6002966224377
98.4651329586123
98.8369059442378
98.8474894816788
98.6979953992991
98.6133652246305
98.6259255421496
98.5940134323176
98.6026946388733
98.7262988284484
98.7426817026545
98.6788821487025
98.6442127255488
98.5141764448612
98.5044933524509
98.6365139782497
98.7412521473303
98.644969131016
98.5570811929813
98.5697055171639
98.5915539010998
98.606913643784
98.7315373430364
98.7530729303701
98.6249262399649
98.5932358041085
98.6195756396079
98.6236121797712
98.6449411428545
98.5621124638643
98.503551069634
98.4526306437854
98.4779153427075
98.5207386255016
98.5384377370359
98.5432910811543
98.6703145506696
98.6107573349118
98.4101622193654
98.6134367743662
98.7029446197503
98.5282697172252
98.5763545778038
98.6738309625116
98.6044620674975
98.5801710607284
98.6214741126523
98.6238682825041
98.4255387421113
98.3702898359861
98.4609313075244
98.4026585349688
98.3382330973626
98.2111141491276
98.2678547718823
98.5011059334372
98.667686674907
98.6183737677315
98.5647494587465
98.6043196549196
98.5382503620265
98.476513904535
98.3430378759148
98.2233337176275
98.4224862217393
98.6406301644292
98.6061464319315
98.4803400658083
98.4379950646824
98.486130307255
98.597603652687
98.4460313300075
98.2720262243957
98.3520390400105
98.4430257865733
98.4357350830437
98.5015156532112
98.6317418522887
98.6872395504164
98.6645216146061
98.5504803442676
98.4028341892479
98.4466112813958
98.5957176565431
98.5667504295163
98.5301031589341
98.6500399634466
98.6967902885585
98.6315954056212
98.5821643821267
98.6522412548565
98.5829796478986
98.3898947017671
98.3687305151743
98.4718212617467
98.4980020590327
98.3403439661999
98.2767754467793
98.5217845062124
98.5947133647835
98.5391638304185
98.4761475575156
98.5893554245061
98.6220604350846
98.574104885963
98.6367777214156
98.6565733003845
98.5091028298209
98.454309609867
98.6681312646988
98.7859545632993
98.7307088773123
98.6291453474083
98.4965727608795
98.5254926813922
98.464144044397
98.3155075845547
98.3923499970045
98.5349893421247
98.5835682902199
98.5515135281532
98.5632386829086
98.6192296635382
98.6131700024732
98.582598942896
98.5461454004882
98.6485596452626
98.5868359364451
98.4596801366206
98.5167353740099
98.6163625504718
98.6676603149146
98.6030204242271
98.5384446989927
98.5339077957083
98.5019917306417
98.5839095724487
98.6953846033951
98.6804303461513
98.5727422172191
98.4822837860459
98.5408257411823
98.7336648782176
98.7528609527455
98.6326280707823
98.6313168154496
98.7050304969832
98.6232712836852
98.4477145175002
98.4529057755476
98.4842267365046
98.4563413302966
98.5579460673813
98.5589190324703
98.5185324632955
98.5463544165639
98.5403114745188
98.5384031921904
98.544081391577
98.5215512047263
98.4565926560653
98.4123395484959
98.4723828815242
98.3697672823227
98.2910623017779
98.3165069725272
98.2670113814751
98.3095146414968
98.3616458222487
98.3317259278485
98.3086819718347
98.2676802348591
98.2566336087661
98.2682441291463
98.3421074977668
98.3535698270184
98.3698324381011
98.3340410700222
98.2536059565566
98.3580487260331
98.4890976711114
98.4493245904391
98.3873280450698
98.4062349182841
98.351368218014
98.2621422087434
98.3113013123174
98.3745255202472
98.4061208818151
98.4375712634761
98.541524026318
98.5865521156497
98.5749078130829
98.5764582415611
98.5382168244433
98.4726803971325
98.5219410551325
98.5957825370535
98.5636370935797
98.5200582318652
98.421868529361
98.3111844902433
98.3599590154791
98.4651587680026
98.5482984908839
98.6118226082498
98.6105267524565
98.6249126269836
98.6142016860121
98.505043786817
98.4446365384662
98.4677519976522
98.5157634458641
98.4981152998087
98.4650971989177
98.4639890758994
98.4745491852279
98.5246135394923
98.5901037261405
98.5764055265619
98.5233419234566
98.521646036019
98.4786491556171
98.4130553204273
98.4935875762826
98.5179393460899
98.4753492342269
98.4697216512688
98.4470183867522
98.4006132075335
98.3662960115689
98.4213141104858
98.4701790861483
98.4542867659202
98.5067967439477
98.4899156089092
98.4212355060666
98.4420881989337
98.4398731120272
98.4641052466234
98.5770619335981
98.5580733643621
98.430405160151
98.3987090203818
98.4243338693599
98.3969044929575
98.4183837484204
98.4981820586782
98.5673878336251
98.5534910072248
98.4618741570535
98.4429453109866
98.4896326187789
98.5330905424297
98.5382329585342
98.4541806182019
98.4277137844632
98.4323146783278
98.3968802140985
98.4018202130062
98.4316486433575
98.4444943698499
98.4547039658729
98.4319015835823
98.4252610350688
98.4496241148838
98.472781361371
98.5134031782568
98.5145674310933
98.4247586053064
98.3943554776997
98.4767299805034
98.4908373681248
98.4770839048222
98.4949987394903
98.4947558507801
98.4483182146019
98.4256646729956
98.4657500297351
98.5036220673245
98.5122684757179
98.4431758738868
98.4012814731684
98.4033893307431
98.3873665711088
98.4341114503482
98.4447223608903
98.3917603850605
98.4500764577715
98.4693669340001
98.4046492027498
98.4166468188691
98.4517637374567
98.4085726001296
98.3456407591333
98.352746193178
98.4538986375415
98.4805466545451
98.4247252925922
98.3759048260859
98.331382797314
98.3699153276196
98.4533431434705
98.4558124561933
98.4047685518735
98.4190480798189
98.4275228123101
98.4167199871825
98.4505594606017
98.4531610968592
98.4207890103111
98.4135447073369
98.4968287258681
98.5094045097741
98.3969899029334
98.3765279897813
98.433540018128
98.4662784992585
98.471739871319
98.4553342284164
98.3889731853148
98.3273118546227
98.3880866080975
98.4472617746831
98.391939137569
98.3453487881441
98.3413389476808
98.3713714805675
98.4420078659882
98.4210259136719
98.3522165591563
98.3132606508297
98.3452693791652
98.4034562151774
98.3476871929524
98.2739940069597
98.3214634835788
98.3341234754117
98.253176844669
98.2098489879116
98.1968907760442
98.2571685480348
98.3360635045834
98.2530847889484
98.1608589854188
98.1553175368938
98.2019966227984
98.2817337124796
98.2567954903669
98.2003666307245
98.1962356812046
98.2047568772925
98.2664738947823
98.2520319909359
98.209490566585
98.1916838433456
98.1290342978121
98.110212115674
98.1326270948686
98.1580498454497
98.14830344997
98.140944941563
98.1662596553886
98.1311173201818
98.0611503530632
98.0553717875238
98.1286914972964
98.1301328545105
98.0945782493297
98.1438091639019
98.1598915245734
98.1268154407904
98.1277696477086
98.1027181232418
98.0590762139028
98.1076462575881
98.2204805713181
98.257367690519
98.2324614817084
98.2220307428214
98.2315165170825
98.2428128353161
98.2814790676012
98.2830091320696
98.2682461918259
98.2717949981309
98.2550855894743
98.2241912007004
98.1878331368311
98.1531763183983
98.1280913441796
98.1203829288057
98.090945806887
98.0210904144626
97.9692387821916
97.9802143298789
97.9806720325566
97.9421221631774
97.9365790058826
97.895791125189
97.849732466711
97.8602785869096
97.8631367586988
97.8632042579701
97.8621829862431
97.8466972511311
97.8345252566645
97.8051776114838
97.7434445333571
97.6575247814033
97.6430895681209
97.6249627653178
97.5103865891543
97.4128292817032
97.3366023675592
97.258007380663
97.1845523858668
97.1176405756008
97.0575978006609
97.0554096991896
97.1054737841367
97.0955431324459
97.0942379148733
97.174854170697
97.2590484385879
97.2955312712053
97.324471688747
97.3621251049953
97.4034771971694
97.4690036253964
97.5681746053046
97.6897500797124
97.7525033825825
97.7655325867728
97.8213031429769
97.8602354465947
97.9203414391635
97.9739786382908
97.9451965393735
97.9408785065725
97.9840978368115
98.0163976613997
98.0182092929554
97.9643829484868
97.8996656803022
97.8485776644189
97.8047967438058
97.7871624880868
97.7608322264341
97.7256534030674
97.6881064248278
97.6227974889657
97.6049278838685
97.6351870897936
97.6815760566892
97.7395695589534
97.7816433041563
97.7850043438037
97.7758392798221
97.7642047734028
97.7469265460197
97.7477041057052
97.7710165864652
97.8181760210837
97.8465017588119
97.8197800835135
97.8046772908807
97.8315196225772
97.8522677785382
97.8585162435391
97.8770807924559
97.8871719422805
97.8926305172146
97.9164119134892
97.9134509994228
97.889933353114
97.939759236333
97.9643529857246
97.9439621941337
97.9402573818021
97.9170023056393
97.9106733130203
97.9807189257818
98.0188581302384
98.0140189816901
98.0588395573656
98.0910892027152
98.1001145099435
98.110791583251
98.0815765519004
98.0646301789256
98.1349140349349
98.201453915511
98.1919618349029
98.1559042496265
98.1310631220722
98.127576110722
98.1272842966628
98.1256454917801
98.1520253930247
98.1788735575552
98.1411243219906
98.1280523824916
98.1289064670697
98.0834428649107
98.070987484205
98.0927778292709
98.1249928057786
98.1398241852637
98.1241022771768
98.1382276329079
98.1701987627823
98.1781154305797
98.1614500237193
98.1525155366922
98.1314887198328
98.1339128037266
98.159396165264
98.1649247514345
98.1747730142133
98.1791680853988
98.2026070212033
98.2193691914076
98.1738304528009
98.1642849658126
98.1993696620997
98.2064765989317
98.1991907803891
98.2010148434578
98.2100166999906
98.2141603105845
98.1992128563157
98.194184614507
98.2207149470095
98.2201143825663
98.1751214969693
98.155945949154
98.1715422781828
98.1809752378833
98.1935327755536
98.2014873201222
98.1869921478672
98.1942286495707
98.1979653246079
98.1820831597357
98.1913753492307
98.2338088087172
98.2291096797752
98.1895609992579
98.1939872412858
98.1951856660275
98.1934218834736
98.245661153927
98.2526860333
98.1926629745048
98.1777901986433
98.2299914520986
98.2729207457729
98.240991355313
98.1957844479977
98.2181119752261
98.237709113653
98.1971038212725
98.1995849397236
98.2314154400742
98.1964797705245
98.1900140712873
98.223156872528
98.2450058074214
98.2633717165391
98.2393130541704
98.2062315941002
98.2131449046782
98.2138214378175
98.2155546618731
98.2624628907624
98.2594660792203
98.2002392689569
98.2067598756451
98.247716152421
98.2523853906357
98.2285721877227
98.1820334576601
98.1286997945103
98.1075356685899
98.133526545368
98.1610490892861
98.1381211471731
98.1217286893445
98.1474625624421
98.1627996640777
98.1478195842155
98.1577569736512
98.1757570731164
98.130585034383
98.0882534542458
98.0917780831017
98.0824615421058
98.0906377502011
98.0929906092832
98.0845669332653
98.127721674345
98.1779324206527
98.1887745608233
98.1623885337733
98.1534525716536
98.1587610620195
98.1485207274362
98.1666794683369
98.1794134695724
98.1586971510724
98.1417848905099
98.1644189192663
98.1744617403822
98.1673481754112
98.2171993623432
98.2676187574131
98.2805284888324
98.2878859012929
98.2591643805037
98.2218356302141
98.2139927737841
98.1749916548123
98.1459169812395
98.1713164901595
98.1770879935752
98.1866606949376
98.1990930176829
98.2189029708153
98.2457164442217
98.2316254626629
98.2068897435717
98.1731903991447
98.1954455520638
98.2632377991854
98.237396421413
98.1932452583856
98.193647981155
98.2436673604689
98.2937286214905
98.2661099013822
98.2566016316207
98.2702198781935
98.2757319006151
98.3462361021826
98.3500608806031
98.2401859297396
98.1629843524762
98.196515483578
98.2631772742066
98.2607463718201
98.2423688479927
98.2474985811946
98.2167109607084
98.1733405406373
98.1868504898653
98.2199924054602
98.2739431533431
98.317772639367
98.3541627612271
98.3990914126089
98.3280534434154
98.257051219709
98.3001626417346
98.3037953454283
98.250131601301
98.3137400492162
98.3896283800314
98.3552268166661
98.3280154755211
98.3084998043762
98.314098609853
98.3149965409319
98.2953355805761
98.2832426649332
98.3214901581907
98.3836700284116
98.3676564985541
98.3604928939882
98.417929634822
98.428841950562
98.3099985675621
98.2074809627972
98.282766335306
98.3299107042361
98.2809465218008
98.3067985577221
98.3595774632645
98.3204583402914
98.2875462929003
98.362456532331
98.4527644496666
98.4363333684032
98.3509297841944
98.2848808914319
98.2650728131167
98.2633888556451
98.2789536418906
98.3369712476607
98.3402531885124
98.3119109986651
98.3276250717002
98.3571140122322
98.3505277869835
98.2605254667919
98.2451940619682
98.3579272632704
98.4269976471721
98.39854148469
98.3774126006191
98.3610462134408
98.2925410904322
98.2922857997649
98.3206222737983
98.2853517109488
98.3076138656542
98.3623335653324
98.3530495876652
98.3115248517395
98.3175454269069
98.3185673356852
98.2785156713952
98.2799730494451
98.3300037055442
98.3280199759535
98.3021385510855
98.3439228125867
98.3470921365817
98.3018246606227
98.2898564648906
98.3121619992205
98.3621012732008
98.3158952071772
98.2397606849978
98.2226062794542
98.2331065056986
98.2266520169673
98.2423683899352
98.3184727498531
98.3126152063746
98.2346810435183
98.228978979965
98.3180731042655
98.3276478121917
98.3653029794881
98.4598808091203
98.4445172380219
98.4194929561601
98.427859482319
98.4369649196633
98.4423992276541
98.3912771014331
98.3155054791405
98.2606126551915
98.223172349734
98.2420762980102
98.256000955726
98.2612393655461
98.345167018068
98.4116737958123
98.3198708428081
98.2607706137341
98.3489486050996
98.3388366168204
98.1816837850069
98.067938182419
98.0901635838114
98.1784846210525
98.2397547249044
98.2645182682025
98.315041004291
98.3007488048634
98.2498228901341
98.2971280203031
98.3424374749214
98.2931473510059
98.2450183594928
98.2371911447857
98.2632567737087
98.2613430656237
98.2430128908074
98.2741658997165
98.27717232093
98.2180301258582
98.2173780963312
98.218761290817
98.2016106148591
98.2670971862103
98.3020054834146
98.2941258999137
98.37325485435
98.3939192553177
98.3720353113346
98.4420781363025
98.4477475259946
98.3724045893382
98.4055214993281
98.4295700411603
98.3803387222631
98.5157714797526
98.5825674308755
98.5423426780422
98.5840364448524
98.5003194000241
98.3830875701002
98.5007753391543
98.565354913124
98.4729101619862
98.4730490342021
98.4831555033991
98.4986650720943
98.6091861209139
98.6350143301252
98.599169648571
98.6675556312324
98.7549820679805
98.9075300621048
98.886512463842
98.7476467358293
98.8056282521922
98.7081478222957
98.5599300913509
98.6210120337699
98.7304737505067
98.8468099148749
98.9082155404809
98.8468232169398
98.7119335810499
98.6550709447559
98.8876539342705
98.9401100668542
98.860997376711
98.9048579159799
98.8814897001971
98.8099174169836
98.8014874588428
98.8052930371476
98.8131633837311
99.0177793159139
99.0271463397053
98.8243600872595
98.8318645282268
98.9915497855601
99.0916927839743
99.0125156101672
98.9252149006214
99.1097775677974
99.1571728537755
99.0403897136362
98.9375366358089
98.7471560513257
98.5843443108602
98.7056696205106
99.2674881462347
99.5209065677891
99.3879051889753
99.4754704089418
99.6020382028104
99.3515579142468
99.0630438651746
98.8733673420743
98.8085674038356
98.9984703199989
99.1907886196675
99.0841222182114
98.8786463875006
98.8371907756571
98.8650137233291
98.8929207301415
98.9499278713784
99.0589791989591
99.1085333597639
98.9223142191483
98.6457819491566
98.6407955656863
98.689306297282
98.5774145571528
98.4070423233561
98.2966051835405
98.3470544090079
98.4417902940299
98.5565844423899
98.5600496043201
98.5016952348481
98.5548953203427
98.5423564092929
98.616638831533
98.7305835096533
98.6863150155344
98.6702684424998
98.6759268346861
98.6200488937394
98.5867766688096
98.5868504304909
98.627622569367
98.7154509350818
98.7005025761516
98.6093739550078
98.5374588226167
98.5553897841485
98.7358424387582
98.8737879594892
98.8831015320401
98.8700350208477
98.7638224383955
98.707471974295
98.7644271221348
98.7342858549048
98.815471934938
98.964388194431
99.0020015678043
99.100025566378
99.2233531306576
99.1974621736026
99.0747888130825
98.9521660841825
99.027662714069
99.152294541853
98.8169483059588
98.8682341782698
99.3545317765456
99.3717619107776
99.1603786206141
99.1350516625953
98.8945458834746
98.9422761628156
99.2289446457861
99.2760368228706
99.189185759671
99.2434261088184
99.2590396971463
99.2247674766748
99.0935261888222
99.2496821513015
99.4827587905956
99.2836141880922
99.0926825714737
99.2257361529656
99.3353841923116
99.2657866762748
99.1681484548316
99.209516110236
99.1484600361266
99.0461661956963
99.0690987017616
98.8430739560604
98.7487790389529
99.0610575056621
99.1910302405773
99.0728144149959
99.2243863172965
99.2562362523292
98.9831745939806
99.1178353158667
99.544741094732
99.5136972934405
99.0998067388313
98.9733608969416
99.0580548635825
98.8758552338534
98.8916146909952
99.0379978557152
98.9227389362145
98.830520634968
98.8695639489582
98.9646437211582
98.8443567258595
98.8605500185798
98.943690957678
98.9065792522953
98.8946937905326
98.9293721159293
98.9378745843884
98.9220016636662
98.8755430652718
98.7986574279814
98.8526425785937
98.9362992790698
98.8610941563865
98.8829825837742
98.9251862879747
98.9272184809211
98.8826705471596
98.8439781105918
98.9341508083617
99.070239931963
99.1068966248333
99.0342880727924
98.9917167122678
98.9712335006741
98.9877152605622
99.017323664692
98.9726656383975
98.9830124375979
99.0313524476879
99.1196505336823
99.1622984966829
99.1154866425048
99.0512544463114
98.9870546349747
98.957627454839
99.0511967109734
99.1028255259597
99.0880184697303
99.0359213652197
98.9965629655686
99.0889071898126
99.1450310901299
99.0252767240449
98.9977705538151
99.037905562489
99.0057936408215
99.0076104818435
99.0019305703104
98.9550222487525
98.9806657137984
98.9958137332939
98.9227409259661
98.8641306936736
98.8686336541875
98.8363365561651
98.8290973700911
98.8623961005939
98.9251127279445
98.8749978241039
98.8032115734198
98.7678072898022
98.7484092275913
98.7321555184289
98.6866278813842
98.6484859538182
98.6420130314073
98.5666058044753
98.6414055156916
98.6639644037359
98.6265223845524
98.6582625197197
98.7404257489435
98.7302292863993
98.6904569049991
98.638360784584
98.6224569404208
98.6433927254085
98.6378386701248
98.563341948053
98.5326563441609
98.5847329312836
98.6769205680741
98.6582844257905
98.5738889196463
98.5236102154378
98.647610825846
98.6783717614296
98.6425477266868
98.63975128875
98.6551231933931
98.573709040017
98.580271915178
98.6065504940996
98.6037077218866
98.5392131893308
98.4929552443492
98.5366460284029
98.5549715702948
98.5997967554655
98.5237603127498
98.3960435780943
98.3656648788024
98.2689139985375
98.1066769450785
97.9764449517769
97.6864080430954
97.2754533960264
96.8407329969037
96.2684898990112
95.579955918689
94.6528078580386
93.5551670570152
92.3004173509017
91.1980182084662
90.1979480302572
88.4950366498209
87.2378386449598
86.5570647666454
85.6340966453864
84.7614028360442
83.7966735807286
82.7532623232682
81.9260068851315
80.8792948136715
79.1060860839854
78.0347949486227
77.9982867475902
78.3886811586544
78.7923477370859
79.2107082093067
79.6604910777306
80.4727947701749
81.2604429158713
81.8179824074605
83.2246932772352
83.9602731102704
84.9233349404161
86.020455737006
86.2900100235833
86.6266444845298
87.0063034896729
86.8195395200087
86.9847432600561
88.4469947332901
88.9761030084298
89.255345338583
89.2385383412929
89.6748527377777
90.3755077637536
90.373952679049
90.8153238881175
91.7807759963814
91.9848574028915
91.8675483015915
92.3624873896866
92.9239589378789
93.0451232101516
92.7370833240724
91.8657969530934
92.8821209192965
94.416921987369
94.0857069267917
93.7991671669537
94.4545008866868
94.7471528868361
94.6422548920553
94.4973856428094
94.1716328554297
94.1739518117747
95.111425930242
95.4088292899714
95.2573108664299
95.1603794644398
95.2486150345866
95.1892919710416
95.3154744415629
95.5887622800642
95.3701583258527
95.0769491024149
95.3737773006906
95.5618966620905
95.4754851306485
95.5195800284578
95.7039155133005
95.8969467000705
96.0028596840617
96.1493293305188
96.3109159489606
96.4544866424192
96.5056763757733
96.541699754925
96.5731831139577
96.589229406311
96.5590390641045
96.4796675625454
96.2867237687193
96.0453461774797
95.7554036315415
95.4834115515061
95.111835048423
95.1226293068849
95.8654592649652
96.1540965060702
96.141319588043
96.4794107750084
96.7498143035216
96.788729096334
96.8681228766036
96.5475044094672
96.0322530313183
96.9517734408595
97.427658979303
97.4235842530493
97.3965177017433
97.3088030640745
97.3700132872521
97.2625681142888
97.1421009281665
97.0702398910575
97.0189081879724
97.474543888974
97.7251430712125
97.5519236549968
97.4185443296188
97.5440106573897
97.4722249016662
97.3053781173541
97.2561997453289
97.270201486243
97.1675915053238
97.3848235009786
97.4706404341688
97.4373268614182
97.5132906950444
97.3299974333335
96.9315014091212
96.1500927719458
94.7925744935216
94.4084506637853
95.0620889874285
95.6702630637094
96.2319581750213
96.7383238333142
97.2952560575654
97.6549412948475
97.6209749297235
97.4511679149257
97.4487397255912
97.4635843566646
97.3749093843591
97.121045355083
96.8309140189204
96.608099432577
96.2998196127138
95.8720284683771
95.3354992680721
95.0927554775949
95.4023168567489
95.6222002022055
95.7089314043845
95.7877077055191
95.9154541261631
95.7265428527085
95.3227606649992
95.0706560745865
95.4164092408347
95.4859390551535
95.4718607972739
95.4343255387381
95.5086916738953
95.7012173250054
95.7632073411535
95.8460058331872
95.9329206971792
95.8714599125763
96.0318501094993
96.5208555044143
96.75827842788
96.9477918371581
97.1566717936888
97.2798804328841
97.2100832954873
97.099369666691
96.8355193056824
96.2320961892253
95.5257515936389
94.4940677583714
92.9446688249488
91.2037695408272
89.847589585054
89.4289753745545
89.8134460879152
90.888568747627
92.1759800615824
93.0474928237197
93.7110957520543
94.3576494251783
94.7257343487366
95.1095051014134
95.2994295120975
95.2323348212508
95.1122592030203
95.1746931411888
95.3046726399399
95.3534344678392
95.3701979550631
95.3574825736287
95.3226570534209
95.1872180521832
95.1149048395383
95.112670127555
95.1238337277308
95.3392411826341
95.6365019471042
95.8509993256407
96.1636258385277
96.4375241186694
96.4879751699248
96.3962298566037
96.1731035617855
95.8083293032118
95.1958258446282
94.2150723867785
92.8570377881057
91.2004207538472
89.5725366126206
88.3953472444374
88.0768050896918
88.9551614155548
90.5850507531929
92.3500760801808
93.8864007272844
95.0119878902896
95.6772159988704
95.9887816096572
96.0680051677212
96.0345591576665
95.9189027102642
95.747935771056
95.5667372489627
95.345984724858
95.1092973265205
94.8654934446801
94.5792391621544
94.269325199805
93.9749124412975
93.6796622909891
93.3241159463379
92.8781154640346
92.337917895339
91.7068952631712
91.0423228068305
90.3865421491912
89.7707846552785
89.1632813198421
88.5559567173635
87.9420178569037
87.3081483711717
86.6776224921042
86.074243138361
85.479955950291
84.8918958502967
84.3101838446479
83.7272990326217
83.1372003499601
82.5363076080057
81.9343364419488
81.3554057714618
80.829615619422
80.3583626940996
79.9540119448108
79.6188322713686
79.325558044984
79.0257965105522
78.6987436849644
78.3584592673582
78.0116757173012
77.6676488278401
77.3682763647659
77.1686880053978
77.0575766433945
77.02184324155
77.0995836205012
77.2893959023246
77.5887421950127
77.9543484887847
78.3415971053931
78.7550066976169
79.1632392729095
79.5756124055796
80.0352653486835
80.5492047934753
81.1385088085378
81.7690257051763
82.4136309782492
83.0571923762019
83.6931070716017
84.3145036446508
84.9154887931053
85.5098085569472
86.1072843821095
86.6957488851336
87.2760287055264
87.8567954362446
88.4264779874991
88.975793333279
89.481528773346
89.9250090114236
90.3057890363995
90.6441839169946
90.9083683712049
91.0673363403004
91.1470766854233
91.1796554033945
91.1888751710267
91.2313486405256
91.3939346802137
91.7105551019899
92.1475167270875
92.6199393050306
93.0452780608774
93.3718996843018
93.5520490203765
93.6258813026467
93.6713335930118
93.6704089033163
93.5594854633487
93.3504547093719
93.0755437224031
92.7333723218749
92.3198886700078
91.8136214333991
91.1954852591152
90.4672000849386
89.6103988520351
88.5824569124022
87.3954031771302
86.1467656938377
84.9437255487412
83.8860337716114
83.0501467753454
82.4044732869415
81.8772764969909
81.424511392133
81.0533102981132
80.7962804883281
80.6710993357551
80.6672001429319
80.7116430669202
80.7054385588102
80.5970248577441
80.3545772881229
79.9530826667711
79.4635511973761
78.9583820283008
78.5130412011104
78.1632049314232
77.8892373698126
77.6999186587641
77.5889463312134
77.5514359359716
77.5794529352352
77.6531649913935
77.7652415652272
77.9283688775369
78.1530992893452
78.4455736125504
78.8298840311711
79.3068285219128
79.8450190829348
80.4508814396312
81.0680287488699
81.6414368118588
82.2026945376551
82.744492752251
83.2615123500406
83.727264653184
84.1463949801432
84.5214096903065
84.8025187168007
85.0120506046645
85.1561045250102
85.2196398247373
85.241514157275
85.2676686090454
85.3119050990561
85.4150497482306
85.5787141316758
85.7787938074003
86.0410003483263
86.3616529619678
86.6991609657867
87.0281874529747
87.2495953063949
87.0443867839311
86.0090678435406
84.3042446645774
82.6845081516593
81.4808080419472
80.4929465844175
79.8721601431606
80.0577636204082
81.0510326490123
82.3276231645718
83.4717993363438
84.3742772828156
85.055262867977
85.5690494508591
85.9862691921433
86.3288817133295
86.6458473230325
86.9506608480601
87.2110961054332
87.3858469506872
87.4874126263269
87.5567942809173
87.6394783358471
87.757215150988
87.835321290213
87.7972470305375
87.61930226244
87.3042817840099
86.873924558877
86.3995158321853
86.027690058617
85.8830688780953
85.9767675415575
86.2557069940214
86.6070515588652
86.9634940787878
87.3385509783937
87.7065184067372
88.02060529041
88.3181103614808
88.5794974454921
88.7994393366579
89.0280101565492
89.2369368181275
89.3946868860882
89.5424044252701
89.6924403214504
89.8341461918554
89.9491504172281
90.0612654464296
90.173046875199
90.274398045411
90.3778057294798
90.4916743974721
90.6200404430604
90.7606343853835
90.8941276259556
91.0048110529735
91.079800295887
91.149271470256
91.1905124571082
91.2135143293381
91.2365631863845
91.1945476246467
91.1282785156424
91.0023370165708
90.8271968247276
90.6709639250321
90.5449972987342
90.4721269665601
90.425048023577
90.4407236197234
90.5352647262542
90.6411341204539
90.7191075122362
90.7686327441935
90.711158551
90.5186975019154
90.172609770051
89.6477925064566
88.9752706557337
88.1302657408907
86.9495035925673
85.3392452611635
83.9882219327826
84.1083821326289
85.3445807241438
86.5284819677005
87.2788597403608
87.7436457885114
87.99859332784
88.0842980194969
88.08049607981
88.0433102806833
87.9064312918031
87.6849198003556
87.4071308425907
87.179286950602
87.1039237427411
87.2171862387643
87.5404951320762
87.8991026542022
88.2301433950196
88.5726175781162
88.8956053288618
89.1940661376993
89.4835468495154
89.744690673359
89.9637518728334
90.1560029082246
90.3370682246357
90.4964917077687
90.6598214692674
90.7976542941331
90.8595358769456
90.9110435320372
91.0357956080507
91.1695926003949
91.2240847920529
91.2431771679271
91.2561956509616
91.341135979846
91.4308354498595
91.4334985823804
91.270932291611
90.7445154421604
90.1673243789504
90.0655035647835
90.2945279034547
90.6550592425346
91.1013381062649
91.5362969249544
91.8960394017503
92.1924820466197
92.4986350811314
92.7626663774417
92.9733477418384
93.2668881173105
93.5596291746954
93.7416866277985
93.9914797404492
94.2576296756653
94.5270792763501
94.7706862212522
94.9592593906347
95.1374671720952
95.2768868528017
95.5107221313044
95.7498264345689
95.9215037082776
96.0531984266507
96.0738173630808
95.8484636357728
95.4125709376892
94.5412588918184
93.0886601812878
91.145634660806
88.9348504090219
86.6234566024679
84.4173903125536
82.3208120099749
80.1334182262161
78.0904338689482
76.4808912281544
75.6544557398795
75.4559042512998
75.774384714506
76.3847708958771
77.1676809559066
77.9704804819104
78.5601955234167
79.0821682977586
79.7619671017366
80.4567571825246
81.1081561143899
81.727727900712
82.1771928037578
82.7877028935526
83.5623843816602
84.2348958865367
84.757482326718
84.961256900604
85.3308014631809
85.9021905806173
86.1834465117013
86.2372658188153
86.3248292115525
86.4999126200974
86.5697918776
86.9187621122123
87.4982682556915
87.8279045638962
87.6480612700596
87.1978829119396
88.4499385452264
88.7948992175294
88.5289688444054
88.5703679032636
88.4042723759563
88.6471094059607
89.2416420857897
89.706978545079
89.8362796815507
89.7338263017199
