1798
3999.43349933624
650.420452594757
1
128
4
96.852387504143
96.901555204141
96.8674823008801
96.802065907366
96.7863962415129
96.7728947323874
96.8208319502271
96.8279831190354
96.7923135731094
96.7894694401941
96.7865719979381
96.711405833062
96.7847413158142
96.8283529234501
96.8257089151845
96.8582502636691
96.8577360649303
96.8236311386148
96.8493481056501
96.8409359848961
96.7698776294013
96.6417291925562
96.6967572814749
96.7882682714333
96.7725000838675
96.7591126107384
96.8496930748198
96.862499460763
96.7947831825544
96.8125457931611
96.9014333188701
96.9009473678817
96.847636951465
96.7353611873614
96.6599075138835
96.6941346134639
96.8333241743702
96.804386773268
96.7614375794696
96.7339582323421
96.713598777303
96.7464180319186
96.6930335754211
96.7304071711767
96.8463350318166
96.8291049896341
96.8246566244779
96.8914927240589
96.8675658396628
96.6659075392007
96.5077806549413
96.5306424583146
96.6871920478883
96.8157912874532
96.9338149763554
96.957758722197
96.79770653745
96.7863972490752
96.8485185919282
96.7645695077953
96.7099049532476
96.7239480381611
96.7611065968442
96.7383436953509
96.7502435597057
96.7815195206799
96.7924824098714
96.5758048562354
96.7095568870854
96.7356773225285
96.7499898033936
96.7849338799204
96.8304835551279
96.8987884094856
96.8895097354905
96.7672114317051
96.5045057246334
96.4384832273853
96.5636409801373
96.8223289177187
96.9237059564655
96.8817825928032
96.7771619814889
96.6982141394178
96.6653700052815
96.6489761558227
96.6892546009465
96.6984767933424
96.6961069915918
96.785360728811
96.7735989235
96.858747989361
96.8811594543355
96.6181160692969
96.4657774373835
96.6081900759697
96.6377409847338
96.6776835939281
96.7470709165812
96.9726710522249
96.946391349741
96.8003343232837
96.7490468352718
96.5703024421268
96.4958251566777
96.672103391703
96.6788040817565
96.8075860823708
96.9338180134277
96.8818509630608
96.7902856615464
96.7405957792243
96.702131386898
96.7275968337475
96.7883565547843
96.7447408037879
96.7291849472344
96.769889019918
96.8112951082242
96.8969330009236
96.8177448714752
96.7244229115176
96.6958160966094
96.6094540746256
96.7300828681252
96.7533371712289
96.6460291805569
96.5965153587812
96.5989759310935
96.6662485739841
96.6669792571552
96.6828330145229
96.5712410944203
96.766975860541
96.6124775230523
96.5498581220673
96.8060657046049
96.9691340804024
96.9652510638359
96.7878395421148
96.7422885213548
96.5897663399774
96.7805846529367
96.9625532228045
96.9905226103218
96.9238321362238
96.7644011053844
96.6334564703334
96.61096899988
96.6958279727466
96.8356878513784
96.7756478283093
96.7498508970505
96.6700924364258
96.6000999381278
96.7342368225424
96.9803113544424
96.9893953176713
96.8876352460097
96.8254479518798
96.7997602696161
96.7928829075197
96.7810504014672
96.7634851097917
96.6364608183828
96.447243778238
96.5437610168542
96.6986038003368
96.880646547634
96.8359222637561
96.9036579561614
96.6800658552862
96.4302415696599
96.4323784072249
96.5701872198146
96.6355232847284
96.5625585822317
96.7095395056015
96.7822602125303
96.7590619808932
96.7482624324812
96.6404188707795
96.4720726800768
96.4927173193366
96.5049390543989
96.4689811148038
96.2872222949507
96.1066068760669
96.3060938015176
96.5660400380496
96.7923553319099
96.7259992759944
96.6079226310262
96.5474019302151
96.485548347067
96.4923047908473
96.376754788431
96.2983404097783
96.3038667776704
96.5014056873507
96.6635144350968
96.6027716165241
96.534720030403
96.4331543481422
96.4360049848604
96.4647444220964
96.4638046853456
96.4471328057635
96.4034734709634
96.3622796524367
96.4991093902903
96.6248875443049
96.7357724000539
96.7248553868276
96.5422696253244
96.4410678123045
96.6036763032381
96.6893130132073
96.6489774843802
96.598659268365
96.5419690331689
96.620585133783
96.6429491788222
96.549429044569
96.6624405423243
96.6993866766659
96.6429708410237
96.5728928624039
96.5887236173042
96.6314226749624
96.5086954143562
96.3319489644437
96.5213491693009
96.7452045727815
96.7879360693562
96.7164383058923
96.6924185211518
96.5225784154741
96.5097957968959
96.6369844375808
96.6439424115498
96.4962266230925
96.3846664794948
96.5280459736254
96.7461547065336
96.8051367449869
96.7591441400595
96.699746279044
96.6651262169909
96.6477733616842
96.557549666722
96.495398398214
96.5857180368423
96.6687419582454
96.686459043751
96.6948225488965
96.6889473866917
96.6388501288623
96.6641298990509
96.5798697612805
96.6382601051183
96.7313927094722
96.7222903843877
96.6850870446615
96.7428929033443
96.8240356031909
96.8163028210937
96.7943858148842
96.7313765684584
96.5919937268427
96.6842380826935
96.8326678367404
96.8252999935373
96.7269266683834
96.7307953726528
96.8248824985961
96.8691843992751
96.7621026111405
96.7608680965856
96.8514876030441
96.9908716240093
96.8896815606629
96.698594329035
96.6448471082788
96.7196022530634
96.7905650756246
96.8095995170254
96.7130596587484
96.6303611599003
96.6655121585823
96.7481418287797
96.7007576860367
96.5937463562468
96.5814787820293
96.5476321331024
96.4544060145783
96.4700529605392
96.4799683136195
96.4174275487557
96.3275061322678
96.2608729961133
96.2668145855297
96.3088593832326
96.2584481878067
96.2073906078173
96.2738938076441
96.4158712271286
96.4189966561918
96.2832280361409
96.1704927471444
96.2860032397774
96.4038703495613
96.4004078660891
96.4595493794739
96.5176521163704
96.4628801493731
96.4833038078541
96.5123029218653
96.4616768630464
96.3819758313564
96.4350042250595
96.5854711172519
96.6623112054258
96.5988576000064
96.6081311826225
96.6850556765335
96.7677425104901
96.7574602200162
96.7201704691645
96.6797324432187
96.6976871386812
96.7192378345615
96.6859967152827
96.6508993278082
96.6563423810961
96.6827284867644
96.6680942724488
96.6171465487611
96.7064721969983
96.8431394448055
96.8510042528947
96.7299447739588
96.6925682183135
96.6650972398792
96.5980064348987
96.6529079101912
96.7787779546685
96.727357307239
96.6504415044594
96.6115532876303
96.6105763236055
96.7115468026426
96.7970384602138
96.6944770334778
96.5641948634036
96.5924148844057
96.6475528875685
96.5659160594072
96.5396579257267
96.5322517234807
96.5725752251529
96.6321451159491
96.6214903141081
96.5626441603797
96.5313903628587
96.5547514023374
96.6146713833749
96.6216120488784
96.6766108803577
96.6558890451508
96.5699056063111
96.5802370938369
96.5979803551138
96.5784778495525
96.5926451087242
96.591599779542
96.5795540629042
96.5669925206779
96.5546900224448
96.5664806604664
96.660690589756
96.6542830981542
96.6308868630354
96.709118530602
96.7200710072988
96.6477818140004
96.6182181473144
96.6037586239838
96.6268175853979
96.648687040771
96.6598162052813
96.5947207032379
96.4953383341875
96.4803862610412
96.5554023299768
96.6208148620334
96.6193921152284
96.572895097175
96.5775311250316
96.5941561649626
96.5992832583449
96.624954399961
96.6131673030154
96.5635614408966
96.618093598642
96.6434468710776
96.5772308546786
96.5792178996441
96.5936313924088
96.6156190451349
96.6447453946384
96.6359486259835
96.6182374575067
96.5606287742843
96.5382632618528
96.5494174179336
96.5976764776144
96.6027348636962
96.6043110724204
96.6075199924862
96.582719278966
96.5692613826102
96.628677331659
96.6104657738805
96.5388088133326
96.5631081135403
96.6714767848669
96.6852248983519
96.5881664563136
96.5290833177884
96.551001757689
96.5471747360041
96.600624630188
96.6715398869886
96.6346753142537
96.5907860677998
96.6090853688906
96.6283341122766
96.5820284426134
96.486584638564
96.4869227552733
96.5554449649372
96.5935252565672
96.5281962926876
96.4885031653071
96.5425362542123
96.6358579046659
96.6161220517503
96.5216806100399
96.5260735279933
96.5898169337402
96.5898881818082
96.5729542394324
96.59904195075
96.611801975269
96.5523020252152
96.5598303911655
96.5727743065496
96.5663208204219
96.5101208236695
96.429878293422
96.4449196621372
96.4925239767623
96.4534299556712
96.4244333856421
96.4395340635204
96.4417862408628
96.415700876692
96.363771135355
96.3393478187337
96.3700877101241
96.3685508011418
96.3449375457989
96.3497555604471
96.321787970568
96.2871522065258
96.2793531010659
96.22197962113
96.2141473482562
96.2506542739185
96.2607922465397
96.2288641489011
96.1645756835564
96.163827934087
96.2197835656355
96.2444046723995
96.2914279683119
96.3032149882126
96.2884411869597
96.2307621340664
96.1312926521531
96.0769079858793
96.1219945435133
96.1602812977076
96.071287989537
96.0096558982358
96.1009862414449
96.1521057194623
96.1013493491079
96.0636750440152
96.0901930448153
96.0643404431057
96.0161981995707
96.0160614929947
96.057399730533
96.0726115041534
96.0524838482762
95.9854511681131
95.9431348118655
96.0089314759788
96.1218607144786
96.1949226900965
96.2087788285488
96.226366988047
96.2778625277408
96.3022427233829
96.3516950985026
96.3360537463652
96.274194424619
96.308769613257
96.346311294439
96.2846815352879
96.2358113372638
96.2339251677975
96.1988478103272
96.1480367040238
96.0967559440227
96.0341529481566
96.001020872903
95.93931444301
95.861037525667
95.7702458541105
95.728397699449
95.6957741004855
95.6616445129321
95.6870043076667
95.6919002748873
95.6477717178251
95.6155601045151
95.6155435875128
95.5719639647107
95.491396135412
95.4654497874417
95.4042589095005
95.3281577293185
95.2337078717245
95.1024817299624
94.9607709217454
94.8168431764647
94.7142830324112
94.5951018090831
94.4643508191401
94.3694681971563
94.3228850641592
94.3306798162899
94.296458477828
94.2727228424639
94.3462711338127
94.4531676820277
94.4982046310792
94.5775897355267
94.6950203021181
94.7834714463828
94.8675237642303
94.9724220583925
95.121951114809
95.3097189598323
95.4145750338743
95.4619614510922
95.538114748557
95.6298116220766
95.6955608576378
95.7132920232105
95.7393265185845
95.8198986730615
95.8230786224018
95.728675328567
95.6727492958367
95.671836282621
95.6456944848292
95.5996686107755
95.5497843136902
95.5108915703121
95.4566150813378
95.3774353707697
95.3080396689981
95.2488788113526
95.1940464034538
95.2402503919692
95.3617648662748
95.4386964142412
95.4454395024125
95.4799470437365
95.5318084811541
95.5513025761549
95.5549317654594
95.5547756002152
95.5680009451595
95.5800563221322
95.5727964795072
95.5808873988463
95.597673747625
95.6167312672039
95.6569002209439
95.726931343469
95.750009914614
95.7374179154596
95.7384504714854
95.772063263703
95.7921961718664
95.8092851695303
95.8124624094597
95.8080302553062
95.8085853137277
95.7779905616511
95.7657806869684
95.8572664878335
95.904270381415
95.9018141918608
95.9516979568289
95.9857822216278
95.9901269854173
95.9938705334467
95.9878232773722
95.9914117696036
96.0501704026786
96.1061656524447
96.1044204111305
96.0892178055457
96.0785033545441
96.122608579521
96.1682634612231
96.1667801553306
96.1769029307159
96.1680584917237
96.1295491029391
96.1201395888823
96.0877302459033
96.0648813859914
96.0829390580692
96.0807646965442
96.0892033227779
96.1205586225824
96.0908100310058
96.0872792752668
96.1319210415086
96.1677972518741
96.1658396371107
96.1304985130303
96.0956244288617
96.1316524747258
96.1994783619272
96.2258864743872
96.2204492541228
96.2173588266171
96.2288836920329
96.2422642815915
96.2246208912544
96.2086662499347
96.2050166827429
96.1986781039008
96.2112223546932
96.2390057634067
96.2371504597419
96.2414457322814
96.2571386624539
96.2506191434874
96.2480974663899
96.2658835825544
96.2544840298818
96.2369985028664
96.2538132099285
96.2472619541643
96.2107049248195
96.2006169339502
96.1850974204135
96.19950015281
96.2259070724841
96.2129024824305
96.2234944659089
96.2703126779356
96.2503848682723
96.2200597959642
96.25873965924
96.2785527284714
96.2700949136926
96.3021005913578
96.306419796548
96.2570741404105
96.2451310121849
96.2955344631376
96.3332908243357
96.31304082005
96.2704588065946
96.2905749939637
96.3071615158466
96.2879712663112
96.3113996900127
96.3348196460977
96.2772132915675
96.2882388731622
96.3373136506389
96.3089431415341
96.3127213691627
96.3241204905244
96.2846360246633
96.2757902789503
96.2848064178612
96.2973177299577
96.3309169324577
96.3538997083609
96.3509617034368
96.3535862120344
96.3488698457412
96.3367255395699
96.309589177156
96.2560980589268
96.2106102704137
96.2033696960288
96.2227675795834
96.2432868403089
96.2433569999389
96.2509199116179
96.2551506506251
96.2459063770608
96.2534975132971
96.2676655291229
96.2686936283972
96.2799053862894
96.2637237814649
96.2329649644329
96.236503703093
96.232922379907
96.2135809381024
96.2475247101058
96.2949897370781
96.2898297133976
96.2733307208622
96.2944292271991
96.3284134072248
96.3063375101716
96.2990061439329
96.3655389457009
96.3569427648837
96.32188222357
96.3412639142506
96.3762611285105
96.3986560188973
96.3703001631942
96.348013016757
96.3947623928581
96.4339597759591
96.4415324740988
96.4336669235085
96.3980596287294
96.4127089549507
96.4645540074941
96.4667779885143
96.41225365946
96.3623767473565
96.3653385535773
96.3752069325148
96.374722742903
96.3872236179562
96.3864538123515
96.3487312088679
96.3637693827272
96.3997653161674
96.3874850499973
96.3931435270465
96.4473475791045
96.4745527740983
96.482448411894
96.4629058641368
96.4398707993952
96.4621847837649
96.4744590849466
96.4904877253156
96.5342453370695
96.5352866502337
96.5113081400531
96.4426506938571
96.3830055706429
96.4213283549168
96.4707756115387
96.4668188756669
96.4944889968355
96.5315512754481
96.511584622146
96.4858291951092
96.4498779848984
96.4054278952262
96.4388796771621
96.5265787431228
96.6005834880317
96.5860044430142
96.4786448739757
96.4673219564924
96.5429961230411
96.5029465691138
96.5170867636552
96.6006101523708
96.5812368480745
96.542339804648
96.577855236476
96.6080564693202
96.5538517093836
96.4864397121457
96.4726031191671
96.5177339747535
96.5963423487652
96.5522582118764
96.5032763935577
96.6040331807384
96.6753288897842
96.6082846858022
96.5783129891681
96.6115095423103
96.6270730374864
96.629611837307
96.6437193418713
96.6345096182601
96.6239102551923
96.6140509613565
96.6005489109929
96.6322180795104
96.6380777306478
96.5739585747055
96.5563158786092
96.6072856315136
96.6064207364723
96.5722982574091
96.590406100608
96.5805251892121
96.5324614364419
96.5606155991864
96.6041878826291
96.6063331619918
96.6097177915505
96.6172828464555
96.6221598393639
96.6231314539993
96.6529873722629
96.6207365931136
96.5622236193315
96.5512848701386
96.603837060395
96.6503510646449
96.6154192572637
96.5965514182973
96.6003196175485
96.5701830048272
96.5237698113719
96.5087501622018
96.4898046663746
96.466704005562
96.5408173172953
96.590581816988
96.5440864299496
96.5319323895895
96.5451895349126
96.5093157330095
96.5093903365799
96.5086915165399
96.4524610451981
96.4636909411962
96.4746916925824
96.4528544092766
96.4288440669243
96.4558657220893
96.4997064428112
96.5044141840719
96.5583863150204
96.5851385204215
96.4918955775461
96.4733288758131
96.6402794477164
96.6519338388776
96.6397159595376
96.6170581449589
96.5349581000723
96.5391563938015
96.5702243876439
96.6067557559488
96.6074786128814
96.569156537998
96.4780380036842
96.406427971793
96.4031697845431
96.4325660530802
96.4558997587211
96.4994621634169
96.6572889185578
96.6913909303101
96.500006912174
96.4730559035377
96.6151723850364
96.5844091760536
96.4138004559155
96.2833864153508
96.267215977005
96.2986991882355
96.3706566661109
96.4294762538727
96.5434643625418
96.623846732497
96.5609894263195
96.4982340742794
96.5190909815591
96.4874967098375
96.4477768821763
96.5093678798619
96.5882184117688
96.5728116056992
96.4949082884873
96.4671806731217
96.5235509621559
96.5402905399635
96.4910604301603
96.4738758420171
96.5222219392824
96.5700495648014
96.6021046255257
96.6514991868773
96.7769197212918
96.7848358380857
96.706463863343
96.7719843844473
96.8273672929388
96.7863523507685
96.9035091011571
97.0364841369169
97.0575597958032
97.0544746827235
96.9561190804543
96.8414515785125
96.8563240546081
96.9452144260557
97.0134856173545
97.0191509184046
96.9698739710947
97.0667713951556
97.1352253383978
96.9516667573863
96.9075607452671
97.0972336761884
97.2946434082553
97.2739621910578
97.1445825951698
97.1934550924323
97.4404614999948
97.4622993849102
97.3639554403101
97.3745059230396
97.2419640263381
97.1953165621296
97.3566010749696
97.523258219891
97.5940795739281
97.4095208953966
97.3050452872253
97.2697815993701
97.1596029525472
97.4240682549107
97.7294369567336
97.7827726245795
97.8715743652751
97.8093380393531
97.6825016130488
97.6446186640541
97.5496626082637
97.5528254694715
97.7861693858715
97.9094471983707
97.8263664471579
97.8143444120669
97.9034205259745
97.9155189024184
97.6468819058172
97.5542828729259
97.8602052681369
97.9440276023468
97.6937134304019
97.4924041886547
97.5555306335058
97.8389917246099
97.9449703122066
98.1354553475604
98.4460245091858
98.2621200946969
98.1575363701795
98.0861714430375
97.9490730896652
97.8224854486026
97.662634446483
97.5300746417583
97.5588698977439
97.6919296348742
97.6719537045205
97.5728968762516
97.6482442106413
97.6646546585096
97.5374935429615
97.5031958177757
97.5558121257854
97.5121645496307
97.2309354276459
97.046686950409
97.1432737727146
97.1192454475517
96.9570895593724
96.8909471097823
96.9174045083997
96.97372372358
97.0275100082543
97.1065747287421
97.0957213511185
97.0460068199272
96.9957733117918
96.9289769987875
96.9909129331145
97.1300380380624
97.2446128119386
97.2228773072341
97.1097391610878
97.0857865473741
97.1375573495568
97.2106590756911
97.2383473974668
97.3078921656144
97.3452795963629
97.3311978615506
97.1474906675808
97.0776488706744
97.3076140435344
97.4169565208069
97.4144513798697
97.3511127902364
97.2491411570422
97.3186977733983
97.4836991392797
97.4990746756238
97.5485566903501
97.7526197269646
97.9047477131552
97.9848269897839
98.111765505593
98.1731546130901
98.1162512299276
97.9768911148033
98.1194790748496
98.5277207938036
98.3174295233322
98.070491823029
98.142378009891
98.2312054778142
98.3898394209204
98.2494812402034
97.9905311890274
98.0320701405558
98.314884513447
98.571729810035
98.5834103283402
98.5877167307693
98.3052601636493
98.0274656023194
98.0053165270601
98.1468252976562
98.252124325974
98.2788712419976
98.2524610508486
98.1276019602528
98.0036263390695
97.9606256669556
97.9353715157599
97.9349095258105
97.8368483728218
97.7810636187819
98.0077662214341
98.1201355510459
97.9932718201041
98.0237572383355
98.1072459957828
98.1129333653526
98.2483064902373
98.2395352709914
97.8755930903326
97.9913792153064
98.4534570441666
98.4846985675698
98.1204396868949
97.9321296860151
98.0216984136915
97.7791210937764
97.604352482887
97.7547431504221
97.7217240859211
97.5390043863293
97.5420183976709
97.584614526846
97.4385830994044
97.3090241463972
97.3972189373751
97.4973127864185
97.5412077066898
97.5733532719314
97.5007464389845
97.449012850786
97.4536973912712
97.4334164680301
97.4734125251215
97.6141195980943
97.6704702595718
97.6507450572021
97.5396892120661
97.5458708643317
97.5401562691238
97.5449592734739
97.6794413086253
97.7051605256452
97.668776412382
97.6595394718925
97.6567683730677
97.7108615647462
97.7628780068051
97.726800753472
97.6451583001921
97.6447791194579
97.7444069611438
97.8455630116826
97.9103779912701
97.8879522185546
97.7190165459299
97.6762605051975
97.6685203535773
97.7142360472057
97.7909014474907
97.8261496564892
97.7460502231049
97.7227826672486
97.7927880378027
97.873741338406
97.8344224795848
97.7603953673231
97.7255089240558
97.7832710881074
97.856808355682
97.7967767722182
97.7220970863536
97.7340386710597
97.7210094759785
97.7016252876204
97.7007764351211
97.6596868104455
97.5446296881629
97.5919379943005
97.5542536579143
97.5723666401796
97.5964655621388
97.568407167361
97.5194862986145
97.5028662089362
97.4820138986848
97.4075202273791
97.2775563955542
97.3643175877926
97.3231125787294
97.3581968376758
97.4140828571646
97.4309949525678
97.4193261897338
97.4312792295169
97.4277631270255
97.3973413562594
97.3572170744177
97.3775867196059
97.4091666046787
97.4414159993104
97.3862904506334
97.3101112132998
97.344199898989
97.4561534820337
97.4559161232061
97.4530971227433
97.3540299471958
97.4122575368245
97.4753291090783
97.5203610734228
97.5212669196782
97.578938962018
97.4816500062151
97.5034490650345
97.5457522145624
97.5798819457362
97.5772771837872
97.4184609820627
97.4830170167464
97.4622449669541
97.4936862664207
97.4913246299209
97.3948854667209
97.3141592759426
97.2243498009358
97.0055912818888
96.8849802598271
96.6889910539068
96.2657862398363
95.6848533393707
94.9038034025948
94.0116897620289
92.7489181829667
91.3030281338851
89.5909568676371
87.714713408806
86.3013311655506
84.4513074411351
82.4302297355573
80.8936887847602
79.3952050270746
77.9172243438164
76.481313892477
74.9095177235586
73.4473791611911
72.0384595843613
70.2665662862913
68.6454699799869
67.8167732962513
67.6471097699004
67.8230199405944
68.2125464002295
68.8750282382811
70.0156640662476
70.9288002854688
71.8388006047521
73.9971703862687
75.0219027097672
76.5919446832146
78.2215929210819
78.7679016493914
79.4584071809324
80.1301117536216
80.1531281848871
80.4258872824068
82.2794914714234
82.9372383593539
83.3508792573998
83.4167802328974
84.024094202417
85.0199614139889
85.1423112324052
85.6490004685292
86.8448292009952
87.2616232100503
87.1805636806857
87.8261639933438
88.6797151187358
88.9221930382051
88.6821266040489
87.7508172240457
88.8991557136315
90.7831878118867
90.4170225824732
89.9528056999296
90.8184294348487
91.3618168022091
91.2756702868432
91.0719850646241
90.7670775900719
90.7471524834081
91.8301274480452
92.2308207149676
92.0762791862077
91.9426537494192
92.1433343811787
92.1441122544461
92.2533761263856
92.6210286360851
92.4450291883918
92.0422734309876
92.3184901874664
92.5247715957438
92.3912902577273
92.4350325629669
92.6422106751571
92.9340179425052
93.1030827092276
93.3162528390525
93.5296306541101
93.7295524760695
93.840653020088
93.9364151509065
93.9978522010149
94.0424741432329
94.0231845679435
94.0034067301142
93.8319678302652
93.5393556933665
93.1131935844183
92.6777358980416
92.1422924551442
92.0299027625834
92.9219106702133
93.3615976740862
93.3390547824297
93.7402690775649
94.2354425123849
94.3020702697621
94.4397837095028
94.1820482903978
93.5032944551156
94.527903011322
95.13173191319
95.0650444128309
95.087308095597
94.9469149567798
95.1300147227488
95.0725095998461
94.9311592176042
94.9078476911934
94.8254627216109
95.2369070669288
95.637828241308
95.42957433551
95.1715473393071
95.4264778687903
95.4061522627568
95.1763341370903
95.0684517769807
95.188260339347
94.9849643323557
95.2077658677478
95.4405959131783
95.3526696194012
95.5425581025704
95.3982249831039
94.9434185034169
94.1286887574249
92.584899608719
91.5458720555461
91.9240780403748
92.6187974437591
93.4316263072006
94.2304603445742
95.0214109516414
95.5924519563244
95.6749022269298
95.4972995065056
95.5188792064771
95.539230729978
95.4566875132736
95.1760399251767
94.8413463021948
94.5905772610658
94.1785065359083
93.6762277885842
93.0618015959629
92.6135383756156
92.8536116233874
93.0639525407265
93.1964670755151
93.3026286746853
93.4694299295063
93.2116506127266
92.7940184877543
92.4413042370034
92.7299009134991
92.7318106113636
92.7215835250591
92.7293181542783
92.8402097294098
93.0831861434692
93.2103720432248
93.2996275733052
93.4180936717251
93.3868128879321
93.5156123424681
94.1421345861802
94.4895442306436
94.7647596876288
95.0986574153102
95.4213540315321
95.4824908393257
95.4353858878656
95.2963025030337
94.7349572500225
93.8531364528504
92.4704194480839
90.3894947804619
87.8966046931784
85.6711776659184
84.6129493591844
84.7590177183837
86.0184961797958
87.7567280306544
89.043284190109
90.0561777320645
91.0797875479131
91.6856077054526
92.2777154838874
92.6456829390547
92.7103850946975
92.6474481496981
92.7451490082568
92.8866735477385
92.9121806369531
92.9417023485214
92.9199739636755
92.8707350655958
92.6520131009607
92.5054616197005
92.4857830771727
92.4979994046542
92.740373161037
93.1449751519606
93.5062049307924
93.9691072828416
94.3823544986099
94.5641248537705
94.5588915971578
94.3969030207348
94.0655956341934
93.4333048155711
92.3255266606953
90.6689507658893
88.4475868746975
86.0622662187955
84.1065641426925
83.1779171937071
83.863391412642
85.7354190145799
88.0464827303985
90.2698069215933
92.0168170337528
93.1468736368132
93.766124717891
94.0182710302556
94.0495667673254
93.9519585732125
93.7645824566513
93.540068624982
93.2820682744638
92.9739487887312
92.616951623178
92.2142293409587
91.7927473636129
91.3820675328665
90.976119447378
90.5244592041323
89.9157857809693
89.1401563153187
88.2420982607362
87.3051241187553
86.3740366499522
85.4821765804129
84.5964706043744
83.7369904518978
82.8991507914298
82.04518196107
81.1807674469282
80.3334863752497
79.4832268414018
78.6306622673114
77.7878962074522
76.9359316149103
76.0411673292894
75.1167426112851
74.1755485375851
73.2533434630991
72.4008117114861
71.6375577612836
70.9927286237764
70.4602349115143
70.0075154107452
69.5464856414701
69.0240340037955
68.4575420042753
67.8773983378753
67.3089810934314
66.7822773802282
66.3529619047685
66.0575779547881
65.8975010141839
65.9163204838537
66.130693129018
66.5298341667705
67.0505072682111
67.6344095961324
68.2488942902355
68.8622099229406
69.4725892988964
70.1080819136499
70.8087304659453
71.6111926798137
72.4992997963735
73.4188637354159
74.327931471451
75.2329734981171
76.1203083492741
76.9715363471937
77.8166316293195
78.6601876286272
79.5042383869003
80.3565787977971
81.2030297459816
82.0375385024745
82.86211743378
83.6362280221828
84.3367302496039
84.9542673028987
85.4797462940348
85.9100237096786
86.2197617549866
86.3943077446961
86.4541811422235
86.4509069155798
86.502222579518
86.6950454981669
87.0940726535666
87.7216532150663
88.4469158633702
89.1045493552742
89.6219084162237
89.9579222220641
90.1630888572127
90.293109794549
90.3518934988422
90.2954466046987
90.1037982210699
89.7890039491458
89.3927059851017
88.9058278371274
88.2913178492314
87.5453100509458
86.6477747949742
85.5501631336166
84.2321933877095
82.7067078110782
81.0253154284169
79.2981835944354
77.7201685392467
76.4111961336625
75.3170236537939
74.3789354013645
73.5843433921293
72.927479640466
72.4333902237174
72.1488286310007
72.0877017433653
72.1643872361875
72.1988922065172
72.0845999353191
71.7459083713871
71.1506506006967
70.3968540604964
69.5984944071473
68.8430964034187
68.1814637817631
67.629370287702
67.2454786533456
67.0120485667715
66.8986695027287
66.8770865734111
66.9188407008645
67.0216302509936
67.1959060698377
67.4511333431499
67.8168804199674
68.3094151999223
68.9400737366327
69.6947100634559
70.5445737906285
71.3985179514328
72.2240761976387
73.0180584476495
73.7784889733392
74.5221760610874
75.2308160368911
75.8794396113933
76.4739402482377
76.9500736660627
77.3053941612227
77.5497651612231
77.6920699615439
77.7868900134015
77.8411835112301
77.8702236826179
77.9531698757808
78.1335960867407
78.4050049660477
78.777094041255
79.2485408465115
79.7875695374432
80.386270690141
80.9662243952923
81.1001754521862
80.1462879893672
78.0261038431053
75.6278699289751
73.6138398776618
71.8231038163477
70.469122810994
70.2306595629506
71.2507815505364
72.8914033030715
74.4889398728429
75.7895184594159
76.8178203247447
77.6293738121615
78.2887038175789
78.8474280829685
79.3413769162668
79.7818955119899
80.1695707119332
80.4884558807498
80.7057371378808
80.8461542959633
80.9914195982527
81.1840129513787
81.3537023974191
81.3706872719864
81.2450704914826
80.925647656978
80.3795055071954
79.7564318295493
79.2180982482463
78.8976905071807
78.8848498314542
79.1378722441318
79.5281373986711
79.9760985581257
80.4434459432235
80.9182483633603
81.3525639478897
81.7468441233585
82.1102787478326
82.4284997551746
82.7299323667038
83.0189938971467
83.2666713407446
83.4930079606702
83.7022450571098
83.8880220700395
84.0564195105442
84.2437322796581
84.4230478559045
84.5717895399259
84.7249820177747
84.90177770843
85.0865889547948
85.247356240007
85.4283745867888
85.60812044205
85.7372404673197
85.8619225698471
85.9744055466625
86.0539513560337
86.1231486991102
86.0932544249695
86.0102674210782
85.8705596610359
85.6528425055987
85.4393578942017
85.2577076964668
85.117575714409
85.043827562176
85.0823370326286
85.201269865783
85.3712341136909
85.5260768226269
85.6204106158309
85.6033417133606
85.422454403099
85.0509129160309
84.4257152539906
83.523671436224
82.4010771327863
80.8765831063707
78.6531345887455
76.4595640558755
76.2419508231207
77.7929412920605
79.3656499171648
80.4362010578333
81.1548577405687
81.5687959008142
81.7551864546996
81.8180302901724
81.8052357199933
81.7279986658298
81.5010489375951
81.062462981673
80.671526877435
80.4972830330628
80.554196706103
80.8809672671175
81.3217526096491
81.7620087331766
82.2069290185378
82.5913568337101
83.002878855669
83.4250130524184
83.7952487199436
84.0586474215559
84.3523896607479
84.6745506358996
84.9198444194096
85.1079511583089
85.2665835843321
85.3504929060411
85.433161141154
85.5938093949154
85.7683961037089
85.9132887319195
85.956383263579
86.002652187564
86.1486799297884
86.2726516136672
86.3579247297234
86.2734670972043
85.5467890953715
84.5987323569683
84.292419952236
84.6012294197021
85.1689637840405
85.760792338208
86.3275556052365
86.8640225819801
87.3091292006623
87.6605724532914
88.0200718633859
88.414612122071
88.7847729671366
89.1705356157576
89.5022306180206
89.8494633382881
90.3120088142045
90.6485378032458
90.9704098015426
91.3001777163552
91.634300544234
91.9454983365661
92.3043377124323
92.6805631833945
93.0749191861328
93.3830494496173
93.4434798963711
93.2887031915769
92.8435231880895
91.8475221150874
90.0231540237897
87.2118510982534
83.8051844813617
80.3846153626216
77.1109603302319
73.8594331020611
70.5822509140489
67.2566526247328
64.3839093120973
62.7771100653309
62.3437111233234
62.9078480401691
64.1044054026869
65.3371303805619
66.394201549182
67.2766438312784
68.20445605392
69.1868406081558
70.0073949403463
70.7786007361163
71.6215503699194
72.3525060106314
73.1013504810383
74.1163671085044
75.2777734843228
76.1650474747447
76.6624821848829
77.2840521351165
77.7056742362709
77.8087698877637
78.0270255930871
78.4422833372251
78.7620823191086
78.7895806567964
78.9040479767151
79.5304657224476
79.9678375700077
79.8835219679012
79.839843424934
80.9981467866782
81.3932421564903
81.6534867752178
81.8638748802281
81.6492392454809
81.7356106026381
82.164015936164
82.4043518874681
82.5976187099411
82.897155759896
