1798
3999.43349933624
650.420452594757
1
128
4
95.9924211541049
96.0141469447723
96.0327400174274
95.9723438124632
95.9965021663203
96.0560538652561
96.1192456358048
96.1277431040209
96.0441695985668
96.0324158650595
96.0725068587956
96.0159061738307
96.0463793824268
96.0869615079896
96.08778602687
96.0828128767386
96.0785201804197
96.092550209556
96.0718322078468
96.0340669362859
96.0298718833803
95.9519899507193
95.9642517943386
95.9892295692703
95.9393642830329
95.8851200700997
95.9845430543147
96.0625343153209
96.0024320982852
96.0650523294062
96.2009843966553
96.1506619313623
96.1569628710205
96.0993333919453
95.9367247616707
95.8759660619037
96.058155339581
96.0932357719832
95.9978428417063
95.9856177463857
96.0623049307727
96.0698407690813
95.916342189394
95.9474548792559
96.0996535171619
96.1016598063304
96.091573074622
96.1128728241033
96.0137742498739
95.6917566089489
95.522626962889
95.6437780772772
95.8561796687531
96.1591899501149
96.3892768594903
96.2736525885983
95.9836766792619
95.9993508595987
95.9994418908264
95.823991133457
95.9519455596902
96.045227540208
95.9019861733719
96.0130959933942
96.1833906445745
96.0890378463467
96.0151430017885
95.6230199964711
95.6554593178928
95.9582235313499
96.0578181233772
96.0497774845872
96.1271309916744
96.2286610139211
96.2387107723414
95.9517076187666
95.2941487090184
95.1120510764607
95.85371551792
96.4682893762674
96.5081093202206
96.288345796629
96.0282429228429
95.8265908569453
95.6095689787573
95.5945833926469
95.9258164682425
96.1407761482591
96.0658316129509
96.210286429437
96.1918488733149
96.1193698414857
96.1637006655765
95.8269139436996
95.5685723135383
95.8762609825256
95.8901666339941
95.958819663299
96.2626991477318
96.4970994461381
96.3073274055429
95.9332705730505
95.8851717624169
95.8574946854084
95.6148675744335
95.7728495027319
95.9917776291514
96.0987229281724
96.2466162483623
96.3100038885502
96.2329433115636
96.1113728605672
95.9920060392981
95.9387593060831
96.0038143473387
96.0012489542446
95.9455822622713
96.0021410571327
96.0781983921841
96.2147571762023
96.1548295908293
95.9252610483789
95.8421143986099
95.8468422924968
95.967747420754
96.0540076050517
95.9658904159967
95.8309883487419
95.8707922374114
95.9944079985724
95.8186316987654
95.5765800393651
95.4320299720729
95.9449496697921
95.916283194885
95.7879928477958
96.2491672757699
96.5368424956466
96.4067338039245
95.9950150230913
95.7286726200505
95.5816970618396
96.031272167812
96.4672262834825
96.4343757209808
96.1689977117121
95.9784483286248
95.9019354248694
95.9592207648908
96.0691403915719
96.2375596912536
96.1037102439748
95.791856372411
95.6639514162572
95.8513233027402
96.0961056838237
96.3628088925662
96.3418952991616
96.1589731370232
96.1346610962379
96.194103797594
96.1891506016887
96.085874561073
95.9071612947828
95.7065204953288
95.5311653085469
95.7734502680213
96.133820653757
96.3276999954816
96.1528964728258
96.0741274550052
95.705937048054
95.3543912855646
95.6029445013938
95.9318182451695
95.8915477798101
95.9981887965942
96.3817724710645
96.375746176424
96.1730803784354
96.0902512012478
95.9690949124051
95.6348175843275
95.61843723058
95.7555973374985
95.563932478264
95.2074951874184
95.2227477624793
95.7926160077537
96.1533691366976
96.2747677658185
96.1073440184155
95.8786739866971
95.7554892379889
95.6209926149404
95.5649040804407
95.3384764917975
95.0649212152703
95.2748245975764
95.8907324657137
96.1683891845438
96.0061025688986
95.7107859906926
95.6018858425646
95.6976416496916
95.6581541599331
95.582026508865
95.579906920919
95.6598743415121
95.7800638230794
95.9843317822287
96.0432588091365
95.9470668256962
95.83489505072
95.7713688423736
95.7089355865334
95.880040475264
96.1073810910152
95.9716484726712
95.7611995226734
95.8491303360439
95.9747254918056
96.084929762766
96.0577742519652
96.0457737407026
95.9536574998729
95.8198268241656
95.7589747213708
95.8124351477198
95.7433622605491
95.5105254470853
95.5117643499822
95.848644067913
96.0448572067362
96.1054654703199
96.0561721863067
95.9768239362148
95.8495645692811
95.8280026373749
95.8550812950341
95.9209040130081
95.8412185009419
95.7935945894814
95.9865697163055
96.0374314964843
95.9443011091238
96.0183551846859
96.0604949197262
95.9648107349901
95.8558262699161
95.772931633562
95.8337141406141
95.9438760379173
95.8747994018327
95.8841256852082
96.0536844955832
96.1207850359338
96.0803876679861
96.1238287886602
96.0610776540859
95.9677185257044
95.8714905707058
95.8597022726622
95.9390691276689
95.9935439569921
96.0400749373873
96.1323670621781
96.1493472325087
96.1592525440261
96.1325813667779
96.1249693110002
96.1761302771465
96.2280614356628
96.1811917226005
96.1176128554503
96.1785915679184
96.2762629926199
96.1814426768667
96.0332969425666
96.0286005727956
96.2126526263413
96.2441785058687
96.1574338813664
96.0472991930244
95.9394083271233
95.9620678833997
96.0962573477429
96.0738511221246
96.0269404880619
96.1013730424228
96.1836113767076
96.0329769908888
95.913889797386
96.0047669629236
95.9521013058484
95.8314808889608
95.796841423816
95.695814429348
95.7072576497439
95.7579017608187
95.6245230086419
95.560030154493
95.6650616712509
95.6877714209418
95.6363182768296
95.5535945049052
95.5295422194443
95.5397115713183
95.5559396749842
95.5204792242809
95.6060213646785
95.6780438570321
95.6257718406922
95.5935422484001
95.6788433014263
95.7644118824888
95.8046645424063
95.8367930504543
95.7658018898909
95.6561523474256
95.7635546110414
95.9107288584393
95.9414903967914
95.867268346418
95.9082854004284
95.9735200517804
96.0568494031079
96.1110540381886
96.0274163931996
95.9368766025195
96.0634437016095
96.1375836034377
96.0657893785749
96.0452788860119
96.0281111793391
95.9903041574524
95.9791632572142
95.8961064185157
95.9287892053344
96.0471870124728
96.1112304540058
96.105000302406
96.0571328783138
96.0335879725855
96.0282343384425
96.0083019777567
96.0501784635437
95.9899246615665
95.935925620888
95.933479458649
95.9385560099845
96.0164185712493
96.050929557559
95.9573106480566
95.9335345462681
96.0287459708049
96.0172749851543
95.8671643716794
95.8607729352968
95.8577319893719
95.8882250652086
95.9862642006395
96.0027534293927
95.9640985004609
95.901104909263
95.8310049174921
95.875904638615
95.9324548487647
95.9842246501782
96.0128662008451
95.9606279899321
95.9196746651609
95.9318695608974
95.974112048656
96.055960361792
96.0202891060695
95.9563549113798
95.9439170029688
95.9059883885326
95.853450984334
95.891750977859
95.9442706114447
96.0347581641862
96.0566519262723
95.9622232501933
95.9716291644453
95.9826218697698
95.9332290287975
95.974405629909
95.9900167501232
95.9660725771124
95.8963379043114
95.8835695160829
95.927187343466
95.9510122549103
95.9210461018737
95.8532554129572
95.8679288502389
95.9448316007871
95.9503918565092
95.9749007173934
95.9956789484628
95.9939042039912
95.9425302573163
95.9070057980621
95.9375307386071
95.9312348287994
95.9277176340518
95.9298125224162
95.9362097172929
95.9528448272312
95.9738803278498
96.0221911243338
95.9969644405117
95.9274717202829
95.9019174489062
95.9142187185824
95.900111318836
95.9191601226789
95.9584700692386
95.9484755686706
95.9319031695668
96.0259767410552
96.0005050225159
95.9319225847068
95.9744905261149
96.0273578540944
96.0037314429764
95.9302568850608
95.8581334596407
95.9078163451358
95.9665649133215
95.9404894551288
95.9271645393847
95.9375203652983
95.9250638565096
95.8966433501449
95.9537299250876
95.9654796792571
95.9070377895343
95.9269485092846
95.9284413689545
95.9227794883192
95.8825873263438
95.8635904842952
95.8949865142939
95.9653771159733
96.0031496683482
95.9700963557005
95.9344618132556
95.9535765676559
95.9796738433346
95.9612714422612
95.8855453499908
95.8404959505265
95.8482053377428
95.8972083701608
95.9236930858727
95.885102705025
95.823018574146
95.8292280742329
95.8918949602565
95.9377077164098
95.9219126753966
95.8645870190301
95.7406139754834
95.708910987429
95.7686932823189
95.7468856206681
95.6783492839799
95.6974448268433
95.7312313092264
95.6932936968457
95.6667211841465
95.6967312595947
95.7289706602455
95.7077184907699
95.6199356933206
95.5475220648989
95.4860994227739
95.4767406460037
95.516996647374
95.5217468822569
95.5344832150685
95.5811522852721
95.5782503652642
95.5683561077482
95.5764561928439
95.6310968014304
95.6170614212074
95.4604020602642
95.3733543606728
95.4238174560404
95.4670304736611
95.4549763033202
95.4362369884268
95.4288698960313
95.3937812851673
95.362218796945
95.3170855253659
95.3631598486761
95.4103891309855
95.3762241369881
95.3767824465827
95.384563468229
95.3594358042239
95.3552032092179
95.3262593816675
95.2721751979066
95.2868419836077
95.4273411790182
95.5539919155448
95.575771929546
95.6062466688047
95.6864665331047
95.7169946426248
95.7238731676201
95.6653575986153
95.6227501133695
95.6864068621336
95.7119179297724
95.6421087345351
95.6075989612759
95.6099391933035
95.5673626595329
95.5010668876563
95.4362200608353
95.3512634551155
95.2558196309711
95.1816824820998
95.157034239301
95.1085586607751
95.0751272312497
95.0465922762534
95.0144254608611
94.9861438185693
94.9699018226193
94.9395146585818
94.8670921335158
94.8082852568722
94.7939023655464
94.7647911411991
94.6877765070363
94.5763177276503
94.5162152377995
94.4482395186983
94.3137575733171
94.161983685875
94.0061609680182
93.880470940889
93.7633843768191
93.6209710724907
93.4626242770252
93.3588936576494
93.3521890204142
93.3406621204304
93.3442957585404
93.4000839437347
93.4954386473846
93.5681343528112
93.6514332371763
93.7686087751134
93.8684338285473
93.9856450908708
94.1787422323955
94.3533303035459
94.4676604377939
94.5495248739294
94.6329048285184
94.7366398399527
94.8433994038626
94.9267088820266
94.9847776297737
95.0509830690515
95.1324815492605
95.130703972977
95.0845675435186
95.0503832477261
95.0267570314777
95.011775284373
94.99682209476
94.9442432992996
94.8370667208233
94.7250210370539
94.619709635857
94.5387273791732
94.5408505225183
94.5197433902382
94.5204327494377
94.6142947763551
94.6965292147776
94.7572948926603
94.8270653510032
94.8333445343362
94.8112194178039
94.8193240559901
94.8338475699772
94.8620280698744
94.8932140547324
94.8870923830195
94.8640819254497
94.8801647417286
94.9173190542637
94.928395709425
94.9835373437171
95.028995803196
95.0380456222262
95.0545373456923
95.0658440534228
95.0917487875878
95.1537600253336
95.1333243147818
95.085742868003
95.1042542439719
95.1377798884498
95.1569141293878
95.1870973235111
95.1981692784133
95.2424493133545
95.3343871424324
95.3672482856034
95.3549422426969
95.3575750290278
95.3659866434871
95.3856206482523
95.4252468408027
95.4767509453597
95.485913929398
95.4686527512686
95.4547518478692
95.4756503432237
95.5083924064885
95.5156392406434
95.5312461280563
95.5546549147659
95.5416979474063
95.5363974121912
95.5117134658444
95.4644441343187
95.4332321903301
95.4217510664628
95.439286793501
95.4766924856761
95.4838632433465
95.474113204454
95.4827700452963
95.4988257808438
95.508098013099
95.5103995151813
95.4824004923034
95.5314929271542
95.6056824856675
95.5948653764247
95.5705493028554
95.5829220362075
95.6238014574306
95.646075967329
95.6235038090109
95.6158663525954
95.6053669296838
95.6030623892941
95.649800805791
95.6759036052125
95.6476188872177
95.6352682572137
95.6339303288633
95.6345277496401
95.6432280859828
95.650258276567
95.6369424202585
95.6260474088556
95.6371722705964
95.6503578420407
95.6491981010456
95.6393584819868
95.6251628695227
95.6363792536548
95.6423352016224
95.6150349605174
95.6156634385806
95.6929932021014
95.7185478017464
95.6888933282852
95.6876349193192
95.6605144511481
95.6523261492792
95.7093849358408
95.7268481209255
95.7026137630515
95.684286795316
95.6973231193195
95.7295133425678
95.7470303147516
95.7301020295899
95.7179363383101
95.7287913709304
95.7396346729581
95.7459984646017
95.7422380036722
95.7105896889947
95.7355142229776
95.7680519776723
95.762954521334
95.800942861474
95.8147724438886
95.7906051016586
95.7756636128523
95.7453536564695
95.7508290383976
95.8050267784868
95.8101642515838
95.748579164557
95.7395940896655
95.7612962598811
95.7637043800663
95.7553739004262
95.7146309392751
95.6616527892076
95.6425564614192
95.6663731563632
95.7009645036579
95.6949881637508
95.6771228250355
95.6888450636165
95.7006324997594
95.6749334191297
95.6814934716532
95.7027994906221
95.7068267700496
95.6995373647969
95.6644451486994
95.6565960595792
95.6695530343964
95.6405025166409
95.6598261825474
95.7222348611629
95.7492135415004
95.7593339207592
95.7784599718074
95.7829545815029
95.7606572070221
95.7041292682589
95.7035122625613
95.7672036383037
95.8234245312886
95.8537496969986
95.8692929023513
95.8497499367686
95.831678996031
95.8269055444463
95.8607833316373
95.9025176514535
95.9275473770094
95.9452539042955
95.896861127255
95.8471167501821
95.8800496399281
95.8755338283496
95.8527635565611
95.8426832694375
95.8493116273587
95.8956658434747
95.9212116464621
95.9167013412222
95.9273979865296
95.9669915638184
95.9894534173324
95.945593731487
95.8848652533583
95.9002250803329
95.9741472689352
95.9845904463895
95.9730279334969
95.9940238238513
95.996261584205
95.9695313618252
95.935732866751
95.9574323804187
96.0218357383792
96.0296510153651
96.0093386009097
95.9754758373588
95.9724484219875
95.9656980363685
95.9179848702763
95.9234959951003
95.9861052843499
96.0236592785013
95.9917680326095
95.9818357314477
95.9950647175294
95.9583988739422
95.9680453626984
96.051724770117
96.1065704292391
96.0376411226243
96.0015342071038
96.0504967090183
96.0465611071084
95.9977511104919
96.0724280044674
96.1401104464966
96.0536983866734
95.9909220683277
96.0428832088362
96.1204629759695
96.1060720198907
96.0700040892081
96.131326841169
96.1100703935826
96.0754502008241
96.1365172139672
96.1482164208959
96.1710064190426
96.2127083010569
96.1659029195604
96.0955730496791
96.1002495883277
96.1466082912168
96.1595527700869
96.128507919241
96.0727929516217
96.0950477486618
96.134072735396
96.1569798919126
96.2011325960006
96.2035636019687
96.137786813993
96.066937827112
96.0549499593006
96.0934581578754
96.1558893914159
96.2166084998222
96.183935277352
96.0937932145362
96.1055718327967
96.1999572278989
96.2327049491208
96.200324708129
96.1862230405445
96.1831690040388
96.1804523788774
96.2194728937323
96.1989942247284
96.1072663171442
96.0571798756198
96.0965559221947
96.1117833573479
96.0454994735738
96.0956511153448
96.1614613724206
96.136117681259
96.0897640654305
96.0577333521714
96.0566312504145
96.0293987901085
96.0134492162276
96.064486084037
96.0826509663779
96.0612194173288
96.0791415005209
96.0542374983496
95.9726864626517
95.9461640491455
95.9967447758011
96.0567851204373
96.0146184593386
95.957622666121
95.9297453180199
95.9148796018964
95.9360937659933
95.9272706216822
95.9218881910075
95.9927362022951
95.9688620627544
95.8830579359885
96.0266669673727
96.0705198222532
96.1005038903267
96.1438309925668
96.1035551915372
96.0889369079364
96.1183976592468
96.1863110310049
96.2141397386153
96.1542147446466
95.9983212072287
95.8626507191386
95.8611770220956
95.9422336053662
96.0017505332761
96.0379230253863
96.1517106512867
96.1732967729206
95.9982117376522
95.9914728099894
96.1388467728205
96.0836732109415
95.9090876864347
95.7889189490077
95.7980317834725
95.8871144253132
95.9778212866657
96.0024668602677
96.0867699371129
96.1463094161146
96.1136050771565
96.1131923794179
96.1296859123684
96.0714620166958
96.0019792598699
96.0161186502592
96.0799642944903
96.1208214047739
96.1281726528315
96.1142687179612
96.0965197741838
96.070572442014
96.0158215799471
95.9869972556992
96.0464486387285
96.1946442922944
96.249952041538
96.1619128708449
96.2817136456044
96.3960705943773
96.3556023602986
96.3980523665731
96.4705868443497
96.4710953778186
96.5203535755988
96.6083164498737
96.5765120652462
96.5873114142584
96.5745707773524
96.4941336118498
96.5390568296461
96.5701212027438
96.5886582142607
96.7690601582969
96.7869097089038
96.732276541189
96.8705866791176
96.8395043532563
96.6129440614511
96.6718702001675
96.875903278328
96.8114764839108
96.7426357719477
96.8588386281081
96.9461174505435
97.0283066640784
97.0192455378402
97.0108788412935
97.0582108162569
97.0753578349494
97.0143400784151
97.0929017029052
97.2764054928697
97.3253862092208
97.2163867805774
97.0207641314857
97.12349298372
97.4432100278195
97.4009411485134
97.2203142678714
97.2591468272209
97.4368682587481
97.7606473849482
97.7803146278097
97.5238332544041
97.4537299277468
97.4253903294814
97.2856111118578
97.3801097502042
97.675407960104
97.7380335926249
97.7056508409894
97.5218633745873
97.2975341302742
97.6842231300368
97.9848774160044
97.6856670544415
97.4704345016936
97.6130937129284
97.7747086928004
97.8842751102675
98.0267496293944
98.0870560179801
98.0841461036355
98.0075951215252
97.8212993449573
97.6285468493425
97.4293419100723
97.3015158894663
97.3544087136163
97.5335820552672
97.5534909402467
97.3590614801629
97.1373558192641
97.1577697582217
97.2668988509734
97.258728835269
97.129620136283
97.1215345829761
97.1847251613421
96.9370446493433
96.7206903623124
96.7431077307061
96.6896459288248
96.6226965436335
96.5828501481477
96.5631746547601
96.5609432958706
96.6302679482707
96.7421478898193
96.6618429606757
96.5530867671036
96.6703000730937
96.7001487488175
96.6798490289695
96.8410014899777
96.9471796401935
96.8376861276484
96.7321212084535
96.7678908763411
96.8026475466409
96.8014135650447
96.8657467013118
97.009472032076
97.0273585148319
96.9769452891062
96.8036952617104
96.7778878628189
97.1077808395819
97.2232630077812
97.0649030001194
96.9191971022439
96.8788800796564
96.9669399431873
97.076227342016
97.2300029052597
97.4359690497547
97.5598678091274
97.5449244371731
97.6228993881002
97.8094780260379
97.8239944271396
97.6905106766182
97.7576941270156
97.9272483613629
98.0151465753375
97.9499967703741
98.0161833102121
98.1562101989916
98.2081720375969
98.0979954383233
98.0570613207705
97.9942773980019
97.8461806248855
97.7127598456413
97.8164790442903
98.0507414654195
98.1357693115249
98.0564781704767
98.1752946238825
98.2274779463615
98.0380117483273
98.0010770010106
98.0044936274795
97.8033608312773
97.715169564676
97.7649851286582
97.8021236552987
97.7253042794665
97.5584110955972
97.530520220874
97.550203199235
97.5864082409438
97.5520395466159
97.522575490582
97.647866681823
97.5709872321552
97.5314600826941
98.0031128604206
98.2679478011553
97.9259626709881
97.7199245296738
97.945288800325
98.0024125878487
97.7845070545516
97.6910472010076
97.7409089921055
97.4185964643115
97.1943848943329
97.3000028173219
97.284246104259
97.1479669842161
97.1356509175391
97.1220951798814
96.9908329758912
96.9715148394123
96.9054416392554
96.8668966330385
97.0456526374753
97.2589641852495
97.2980274202701
97.1988091653386
97.1507727022899
97.171550911106
97.1581864737207
97.2287141288489
97.3252783710121
97.3345264917569
97.2165265798185
97.1458713501393
96.9927438395027
97.044420748277
97.3210874176855
97.4271528552078
97.2925911034177
97.2061595636479
97.2939777448425
97.3178106895438
97.3514544458441
97.3549086541955
97.356280430407
97.3949435902927
97.381685047497
97.4306681710443
97.481522782062
97.4308119793167
97.3732158427625
97.3999537910235
97.428557600012
97.4620811516431
97.424747295434
97.4880636059772
97.5450908176549
97.4780602524326
97.4707451425393
97.4988182824214
97.3915921075817
97.386709983735
97.4639246446865
97.5025247086076
97.5285530819013
97.4861992676464
97.475431897289
97.4801601609339
97.4257931665988
97.4103520039458
97.3961241556455
97.3219774814346
97.2225638789442
97.2128776409022
97.2060660766748
97.3551590530918
97.3178075285066
97.2309443626608
97.2248430347841
97.2251383180537
97.1455555864998
97.0000922628877
96.9714800811328
97.1184432455842
96.9946438550623
97.071358806123
97.0989586977998
97.0504645897065
97.0538459180574
97.1442634741116
97.1567092490744
97.084421228828
97.0531311473276
97.1393689247582
97.1550158969552
97.1346422212615
97.0433030775479
96.9787147368396
97.0655849988098
97.1937014635918
97.1636742505713
97.1066610534086
97.0278403926395
97.2089509405974
97.2515443958366
97.2422434718034
97.2469694546785
97.2965150025788
97.2251005110698
97.3207840931778
97.3222610157762
97.236656419473
97.1797218471516
97.1827342999583
97.3140566345672
97.2493382267218
97.3088208518145
97.2627334294264
97.1367252815525
97.0833199095854
96.9742314789034
96.8008265280169
96.7320011546598
96.4451630274314
96.0316696961691
95.5315896352511
94.7060171312291
93.7415672473092
92.4137125122982
90.9103073069651
89.1378056061166
87.0678403686317
85.4248109645643
83.639036534277
81.6294826294901
79.7465863762817
77.9328253178934
76.1812528171089
74.5264658655568
72.7866431233955
71.0785263956534
69.4924481566026
67.8571626867335
66.2949743538582
65.0904737063445
64.4831688710324
64.3625562430096
64.5809260487249
65.249854914913
66.5768437984702
67.4292818755254
68.3483174422215
71.1764968977166
72.30391465928
74.018174745225
75.9828930543288
76.4386632213161
77.1154255465174
77.8944078700403
77.7872749488189
78.2351210601507
80.6223089124247
81.2283778617058
81.5225006598127
81.4716544465322
82.2435992531275
83.4197707002076
83.3745730071926
83.9945032974151
85.5347423589159
85.8897707987081
85.6546971498529
86.4317592698087
87.4304466983165
87.6425507165891
87.2200617250294
85.9723181857559
87.6956899182844
90.002879859842
89.2720011244444
88.6710123164941
89.8391589543331
90.3752534070332
90.1801192209465
89.925472412648
89.46158519368
89.5157553856104
91.0860158430072
91.4927217182699
91.127238644535
90.9109157465533
91.1714575872442
91.1640281698207
91.3981981108332
91.8827879394184
91.5543153626571
91.1069634721694
91.6168608106471
91.8420940241957
91.6005443128504
91.5694804153648
91.7778873426143
92.1176772777292
92.3040756019218
92.5252703921366
92.7525932023508
92.9879354056042
93.0947637463934
93.1987420328415
93.3229062229119
93.4228905751901
93.4150270796614
93.3650603481245
93.1937311201944
92.9331343237873
92.4632166205157
91.8986120139992
91.1493952095423
91.0786975419744
92.218459044744
92.5431003518671
92.3994771424671
93.0045465543287
93.559653879189
93.5865176216954
93.7037294272543
93.172348336394
92.3608980735012
94.0488262245266
94.6714157043943
94.5094377847586
94.4908423434015
94.29806070554
94.5005777358345
94.3625826383926
94.1651738726705
94.0940668140118
94.0116638738182
94.8206029692375
95.2791702035355
94.8388813437153
94.5878732663075
94.9653304866323
94.8307826846792
94.4959477302757
94.4132547436865
94.4976757176344
94.2694242480614
94.6826467129126
94.8951849593616
94.8169483973352
95.0839495124821
94.9017819866482
94.4000462594508
93.4403322210361
91.8583456783226
91.0671689682099
91.2757653687896
91.7479031759986
92.4957262558488
93.3583966133388
94.3730129102184
95.1024191285698
95.1225144142841
94.8947827157729
95.0367930176192
95.1433060604537
95.0718442538907
94.7432074394476
94.3756887361819
94.1136302563024
93.6533955714115
93.0760290225011
92.3956587540265
92.0361059677345
92.2793087977161
92.3716842392213
92.4422675676551
92.6464756813057
92.896675383989
92.5093787699506
91.9151543591561
91.7494399889354
92.2822551311393
92.1594157701709
92.0728334989193
92.0094733735178
92.1445953388575
92.4674653715716
92.561143605577
92.628771944517
92.7245442106814
92.5744179626958
92.7932062435998
93.5976908538518
93.880468459744
94.1291075339435
94.5649013900547
94.9518400088612
95.0280989747872
95.0745854448689
94.9729487608364
94.4731516101443
93.7516656176421
92.2955318122277
90.020714148535
87.2612705680915
84.7109253942038
83.3250254866621
83.2537679413085
84.569590436051
86.4836743425862
87.8346434624949
88.9504773702139
90.0985765462302
90.771681596108
91.5349787474059
91.9769452727914
91.9893496870656
91.9245460554167
92.098434887889
92.2502345984364
92.2678262327555
92.312583991166
92.3014734631159
92.235940341389
92.0061248712486
91.9028865151741
91.8428650231639
91.7687415191616
92.0144023161128
92.4246585349407
92.7616586337855
93.3204614214117
93.8381975616009
94.067438195529
94.1203062770051
94.0373945777139
93.7707535792675
93.1799215490597
92.0828073625385
90.3273311614991
87.8950319000781
85.1670588259601
82.8002590253869
81.6206970997467
82.2650856052297
84.2118409568383
86.7167069005381
89.1784821905775
91.1639000929303
92.4581842317827
93.1853387669426
93.5314670813633
93.6168094927777
93.5250612905668
93.3407757464826
93.1205960939998
92.8382474969678
92.516127397853
92.1630830833444
91.7380063829239
91.2742485909188
90.8458740392814
90.4265308494261
89.9539265307979
89.3306801491581
88.5404966283011
87.592550759572
86.5848646912206
85.5846134048928
84.6202501674826
83.6668737176537
82.7192222923596
81.7902918126969
80.8641758808549
79.9046192214608
78.941349433703
78.0036798298547
77.0697597967523
76.1501452411576
75.2270379035615
74.2698644218035
73.2692149367746
72.2255389967809
71.1999548994227
70.2530622244895
69.4050425182306
68.6780065274889
68.0877740088005
67.571152496335
67.0585469938162
66.5035079266314
65.8908125620848
65.2291067671658
64.5551545567547
63.9343300380533
63.4285056209943
63.0517460084414
62.8349821812728
62.8172211952897
63.0041228895042
63.3980554131105
63.9384822760337
64.5651822412754
65.2327488929033
65.9089362487719
66.5819596883486
67.2651477405964
68.0142244037628
68.8902203050754
69.867574932351
70.8841082275821
71.8813279539284
72.8538602873895
73.7956192697217
74.7238033975471
75.6535606087519
76.5747806680323
77.4872394631398
78.4072852820069
79.3231829448341
80.2179443555316
81.1092228512642
81.9566275453916
82.727743288908
83.4244434622897
84.0322158246296
84.5247453536621
84.894813248274
85.1195053490529
85.2059432334435
85.2134808192821
85.2681841887293
85.4632359357277
85.8774314696489
86.521639841195
87.2898711470608
88.0249849010277
88.6177236657923
89.0202919459783
89.2795212979788
89.4482255724731
89.5314755174851
89.4900694978333
89.3349943890621
89.0637025950188
88.6649152546472
88.1672548769296
87.5643092717366
86.8128013864698
85.8810133153219
84.7590015077124
83.3945048217504
81.7539329827927
79.9307716399938
78.0496796393299
76.2993712629977
74.7951286713491
73.5289353152679
72.4608802239493
71.5544282810864
70.7851897608862
70.2090724164692
69.8727347347047
69.7911616980305
69.8796391100326
69.9284081449023
69.8350229129917
69.5151945503473
68.9143222748108
68.1263400986745
67.257766778515
66.4046531044481
65.6465853615778
65.0256402780781
64.5608349927073
64.2440515175622
64.075380678409
64.0205058828589
64.0440563115525
64.145349231133
64.3258621371467
64.5795715891533
64.9681129457581
65.5100665905428
66.1810264144417
66.9590899479528
67.8292342632055
68.7412418790767
69.6454141998305
70.5246351141862
71.3739779954553
72.1891468318582
72.9585956434545
73.6722821422709
74.3344827519596
74.9014246096154
75.3347991535233
75.6363723964195
75.8078931893563
75.8969762607217
75.9473154849664
75.9815531225515
76.0670393217944
76.2166181736321
76.4722670917108
76.8578567655153
77.3336308702454
77.909193530744
78.6039037439285
79.3264331466405
79.6851669219777
78.8877219721756
76.6721719991112
74.0279828385486
71.7889912028879
69.7666292803275
68.1400781497567
67.6562452155409
68.5783728709174
70.286901819935
71.9936564708703
73.4103275721161
74.5620867137197
75.4674558259921
76.2006008629929
76.8251236299358
77.3808988637935
77.9000785584699
78.3403077012802
78.6853561643746
78.9219303770039
79.0929190993541
79.2663752455344
79.4797027284113
79.6684485893266
79.7363570062995
79.6337462698056
79.3343575072354
78.8155754821096
78.1424815351833
77.4961407638808
77.0869290181531
77.0239119547189
77.2591968921992
77.6818566640704
78.1575523421054
78.6381512588348
79.1230297511023
79.5807138312249
80.0189827279114
80.4338340119405
80.7887674455646
81.1062702566946
81.3823761176439
81.6324675019845
81.9079967071381
82.167200477705
82.383671425758
82.5331033240203
82.704132703613
82.8930664034579
83.0644626688096
83.233199783469
83.4026734780463
83.5945604682823
83.7953192670177
83.9702276652574
84.13907446245
84.3162711903994
84.4678079751743
84.5986889707096
84.7040295272548
84.7762423557691
84.7817789749881
84.7204178649155
84.5577222182926
84.3383523772243
84.1067634102661
83.8826505378039
83.7199416257293
83.6381751645804
83.6642640366792
83.7928408654989
83.9725223003011
84.1440216545435
84.2810651857331
84.3265482825101
84.1594286549781
83.8088292738514
83.2160799015903
82.3514553112676
81.2517045199746
79.7047109161393
77.2866610517748
74.7470199113614
74.2539503669479
75.7463664849822
77.3979330936182
78.592389796947
79.4322638524155
79.9190209916331
80.1517762485912
80.2504620051874
80.2718731922004
80.178389672419
79.922240790437
79.5001321901537
79.0792767036638
78.8513597678361
78.8859454322573
79.2152287276916
79.6548806778369
80.0519649242001
80.4860926248056
80.9294246976037
81.3515667070652
81.7929056377932
82.1916684258888
82.5392705117193
82.8570055746159
83.1313962918074
83.396303517968
83.6978672106312
83.8984780402153
83.9384762436028
84.0170031765516
84.1662124190864
84.2971223589781
84.4323015766672
84.5404511751874
84.609018162903
84.7450462058073
84.9187472982798
85.0773556067985
84.9465840166553
84.231711505717
83.2680871611352
82.8715303099126
83.1316870109486
83.6866040550363
84.386181364597
85.0342149461449
85.4904484063116
85.93440447184
86.394839622431
86.8231446020395
87.1768108132543
87.509107309366
87.9546361981547
88.3336611204869
88.7049142015112
89.2065605916846
89.6735900786351
90.0343405280854
90.3195045415503
90.6510814341156
90.9891033563782
91.3967675625955
91.8925716172768
92.3038999357504
92.5622882276026
92.7711056575387
92.7932234350923
92.4887678310394
91.4784804447236
89.5418920967216
86.6859557942802
83.3429695475234
79.7300091831489
75.9984755802083
72.3221295719727
68.6217447853276
64.9403850370376
61.6733835285195
59.6561911804123
59.1111179349195
59.7151606436947
60.8081767035817
62.0668556748742
63.3914553078178
64.5637116171655
65.5808932101646
66.5933737220361
67.5290434533433
68.3876663915247
69.1938756464352
69.9217288055083
70.9003581515909
71.9968525231695
72.9081557776159
73.8515843321434
74.4816073064163
75.0165337070401
75.555599982199
75.7006034922608
75.9325935580115
76.4938178499957
76.8058938445438
76.9312542651426
77.2589054748617
77.7278136692101
77.942705728545
78.1106269736142
78.2053738412629
79.3239080490513
79.3129261064848
79.3138200637942
79.7467027908292
79.7575805069042
79.8935164934346
80.3444341453435
80.6166387771707
80.5939783468296
80.6014962802111
