1798
3999.43349933624
650.420452594757
1
128
4
96.7455768839074
96.74557765651
96.7848914866688
96.7855830094383
96.7788994478907
96.772718436829
96.8664399736494
96.9285025180171
96.8436272899335
96.7650059712054
96.7690656370959
96.7114927788925
96.7306170719326
96.7194501003936
96.7785836536894
96.855643544262
96.8480324918809
96.7878359960555
96.8190353473192
96.8355546328735
96.7836539365571
96.6540797336918
96.6790840845798
96.7550630840419
96.7601037063648
96.7083133277386
96.755153450644
96.7398649922885
96.6827927808824
96.6895657433985
96.7486940554251
96.8502023410289
96.8685354905468
96.7205757979746
96.6171288989288
96.587523753576
96.7103132678764
96.7748894535658
96.7906726170873
96.7114887114891
96.7463414183849
96.8273886842617
96.6885518114255
96.5993070652894
96.6458626154874
96.7474906627146
96.8356334868884
96.89417478658
96.8271027378881
96.5840926684643
96.4348008307712
96.4386925352083
96.5509182688529
96.8083598788888
97.0377642957124
96.9778766046425
96.7818725504058
96.7267263266337
96.6793991146053
96.6227583433009
96.6421044084542
96.6608336741556
96.6847547832479
96.6864132764639
96.8018872595641
96.8657715751543
96.7599244430523
96.4817368718296
96.5976483581282
96.5269038464823
96.732501060918
96.8137202883784
96.7858524043882
96.8148442116876
96.8458229949811
96.7227438918583
96.3725485785659
96.1343618294338
96.2493441156374
96.8066777798419
97.0161583475696
96.9421649178803
96.7767727169507
96.6261465329741
96.5243733419312
96.4668730058229
96.5639029578385
96.7684007977358
96.8058383900411
96.818813803308
96.7075057495803
96.7497548702865
96.7977184461672
96.5568019632568
96.4162881078187
96.5398484064415
96.6234235507678
96.7294181293304
96.7797794961838
97.0712495114579
97.0340631244806
96.8409951851123
96.7190158774991
96.5609290032049
96.5365077025774
96.5464954660429
96.5225014393449
96.7444345644887
96.7872981338404
96.841175761389
96.8926587733589
96.8466629534572
96.7209568805152
96.6729699268489
96.7590059699925
96.728853049117
96.6970444068378
96.7048622519455
96.7088385807465
96.8710737288738
96.8173227760268
96.6903925272117
96.6429462437927
96.5649286732677
96.6585847390723
96.681677702079
96.6996206398747
96.6383063990792
96.6187404909763
96.6861956810715
96.5133940665286
96.386999341166
96.2657253664396
96.5025330497195
96.4632286598016
96.6317119298581
96.7112826365838
96.8453869129604
96.912998929725
96.7334908158406
96.6363487859739
96.3612938902506
96.5692614563961
96.8065771712016
96.9662402233451
96.8372746249106
96.648362359836
96.6096833572067
96.5512835907538
96.6464326134142
96.8898851564781
96.9034765576103
96.7894000785882
96.5799601968804
96.4672903082102
96.5486427653102
96.8811056995462
97.0274400768523
96.9616690760232
96.8414534901499
96.7514992765583
96.7077359653451
96.6934483648588
96.6883331057547
96.6178688061352
96.4674884424381
96.4879569614828
96.686211576809
96.9349938385436
96.8698540604658
96.9145988165769
96.6040032843571
96.3958039714577
96.3756202671917
96.6134903178163
96.7395681845845
96.5696462675869
96.8237413229225
96.9738187183942
96.846478692073
96.7640878780793
96.7052292682953
96.5243800582272
96.456531244024
96.50261039166
96.5437828505602
96.3539650460452
96.1098231246606
96.2935062524262
96.6853579198402
96.9308535648501
96.8348571125634
96.7127081250161
96.5788358851962
96.4625346726812
96.5129786470179
96.4381923185113
96.2380303597967
96.0087799828371
96.3722060924298
96.7586814898586
96.7443132460057
96.6309721909989
96.4703984784629
96.441706756714
96.5069521539696
96.4865805621029
96.4573133212845
96.5612376717174
96.5481660566256
96.6451445433718
96.7256603795278
96.7696608951418
96.7981629696278
96.6768496782332
96.5602255135021
96.7239392897678
96.8846489481933
96.7812942421076
96.6281528619054
96.5831548949556
96.6133718969444
96.7336337926876
96.7560978382506
96.8499501122107
96.857314589322
96.7189841193157
96.5638998410277
96.6240632343208
96.6865563178618
96.4974582024899
96.2151172302868
96.4052721746182
96.7554367900233
96.8934779108124
96.8824124369674
96.9113531790064
96.7919732672393
96.7042672784637
96.7072337165775
96.7849875897365
96.6600727348581
96.5544884811086
96.7174977957087
96.7983765599899
96.806765363575
96.8253264625527
96.7830677583539
96.782932567784
96.7880037307962
96.7276842717992
96.6743040543002
96.6542467729103
96.6505958992578
96.7194022244476
96.7531987713282
96.8023196183708
96.7976861133711
96.8104383577848
96.7243935459304
96.6690057741144
96.7371671344197
96.8014400605266
96.7473290556024
96.7819738505064
96.908904407112
96.984307545557
96.932851280565
96.8876308123133
96.8495307616108
96.8831361098208
96.9043542310421
96.9256404294409
96.9350472849978
96.9229832832746
96.9545313160018
97.0332342859298
96.9745299561694
96.9215175597371
96.9437489957717
96.9999184570231
96.9121917028547
96.7932619928794
96.7918069189881
96.8236194544934
96.8437808268774
96.9360000529601
96.8723228268627
96.8584499279587
96.9862983829741
97.0613526284329
96.8580367699127
96.6805974166862
96.8045716441609
96.8412682508451
96.6994794180009
96.6542137507862
96.6240351670973
96.5954192876662
96.5750256988643
96.5062512249629
96.4523941100733
96.4612423523228
96.4840892700554
96.5490288517382
96.5088654631003
96.4825954064198
96.4473770362755
96.4278823531085
96.4037456135926
96.399057979006
96.4556483690622
96.5481881883215
96.6409987656943
96.7164820893747
96.6652682051344
96.6425441920399
96.6770014055578
96.6297419051317
96.5723705244688
96.6022497132645
96.6253483083548
96.7138355171072
96.7534203015558
96.7860905306591
96.8422745679191
96.8948354995313
96.8661311478696
96.7935912004843
96.7072684264814
96.7641677475365
96.8389876538761
96.837008058977
96.8137472189038
96.7982892036103
96.8391734770663
96.8890849960722
96.7969615719822
96.8123031846961
96.9303666566141
96.9087893077549
96.7871669019674
96.802227730783
96.8385570016135
96.7622782036035
96.7646344285333
96.8782031329214
96.8362352547448
96.8272599157721
96.8715011294377
96.8277775863768
96.774785951089
96.8301617343922
96.8090120448111
96.7289201762623
96.7452151497295
96.7750571759792
96.6759565652222
96.6653738276579
96.6647016919891
96.6637891685386
96.7351635556771
96.7771836125177
96.7191698856944
96.6434418752492
96.6162161410505
96.6587930852246
96.7010979206839
96.7847716964699
96.7849429869233
96.7091820661465
96.7313944445567
96.7909206776292
96.7501618050968
96.7056125925787
96.6811274814928
96.6921665924438
96.7155663234637
96.7211802039466
96.7093733956689
96.7656754259683
96.7569803453601
96.7324833223844
96.7487819305406
96.7457997947039
96.6968333560587
96.6528025942954
96.6913397926325
96.8065448734219
96.8239382339211
96.8170749430089
96.7729142762039
96.663366195748
96.6179783818943
96.6760284883485
96.7559126932315
96.8099712200166
96.7496092889979
96.6994304941117
96.7420959980146
96.7687047762587
96.7437335107658
96.7448919680154
96.7268515451395
96.7193298868427
96.7519714905643
96.7289372625605
96.6924750367342
96.7212495634989
96.7548616447572
96.7706584874459
96.7964535825054
96.8048785270137
96.7533291319602
96.7378120128276
96.7345602362415
96.7573462726876
96.7635263299819
96.735206516716
96.7020354321105
96.700086687928
96.7028532338875
96.7657105575093
96.748881561715
96.7302028063067
96.7836902833099
96.8095465356782
96.7269308973125
96.6180136296749
96.5822187820172
96.7157996785312
96.7935053918404
96.737718691164
96.7189776415948
96.7222433113282
96.725130896136
96.7566054822922
96.7455656778528
96.7236561903454
96.7339334876267
96.7202326379137
96.6877003949192
96.7478593033937
96.7233121278436
96.6645493214485
96.6486509140737
96.64615254876
96.7089847025516
96.7988375412265
96.7831075751627
96.7717821066917
96.7656715939713
96.7254488160882
96.7086359304103
96.6805760089717
96.6663997506565
96.733687031522
96.7218759859053
96.6356635613301
96.6110548331958
96.666662230398
96.6965533562936
96.6883980565056
96.6745151136958
96.656221326039
96.5936103923162
96.5765607220605
96.5887154921431
96.5550635464311
96.5308303333965
96.6094651676363
96.6155049393636
96.5057052835898
96.4247733801558
96.4143093612918
96.4701195214836
96.5263988135718
96.4807577138631
96.4122182091911
96.3740447425812
96.4027990753696
96.4234243936173
96.3987455483281
96.3940355049543
96.3857074591468
96.4120068733352
96.474024707733
96.4573468615895
96.442185812161
96.4005257918203
96.3522188259677
96.316828923954
96.2915112968486
96.3266186905095
96.3408147392114
96.2761168369602
96.2347853377246
96.2293588472511
96.2491171625423
96.2403337396996
96.2616018069418
96.2477726207374
96.2190457874348
96.2461266268638
96.2597126593778
96.214932685573
96.2203465539191
96.2333904279567
96.2038894050159
96.2300494223688
96.297210181615
96.3539494740332
96.4120192421211
96.4504514622761
96.4637371597695
96.4486270103469
96.4884229088504
96.4842833145035
96.4714262314684
96.5367494462169
96.5686406517887
96.491037296186
96.4441011189797
96.4476316219935
96.4229247652793
96.3965151981519
96.3328106840982
96.2272306592549
96.1690945996228
96.1421265813826
96.1362677727925
96.0891052720904
96.0051050729688
95.9428723184047
95.9634356141406
95.9588698102104
95.9154465490529
95.8997789184862
95.8736634890104
95.8227882675967
95.7962032977699
95.7547163369179
95.7058610530002
95.6612372107473
95.6391668127331
95.5764336775524
95.4197407021221
95.2658990185577
95.1740949173979
95.0986322446118
94.9613750770737
94.8081714646956
94.7266445896726
94.6849369596377
94.6681315861369
94.6476756989264
94.6429651788009
94.6669166307001
94.726658362269
94.7691955453959
94.8331358542001
94.9523957995185
95.0359535775348
95.0975182449413
95.2357669111527
95.3909543413943
95.5057716086498
95.5740800400122
95.6785495588031
95.7876320606867
95.8517930408685
95.8813256687058
95.9191451830267
95.9565765467677
96.0058233574989
96.0323845261138
96.0280317028419
96.0457734958105
96.0320580014813
95.9773881412892
95.9256559844382
95.8526947704088
95.7868973061619
95.7167267858421
95.6677114525313
95.6194038544676
95.5638683346337
95.5196669363113
95.53577389362
95.6190473289166
95.6890785103136
95.6963352136054
95.7222918691847
95.7406596774824
95.7574003239008
95.7889998901357
95.819302375559
95.8643534486843
95.9011829248229
95.8448901473465
95.792326445303
95.8090353706859
95.8681185438106
95.9051958491335
95.9192412301751
95.9413783405988
95.9368135078731
95.9444080987211
95.9749207361448
95.9806433843725
95.9939708240767
95.9852477321896
95.9837548202292
95.9882063571505
95.9573196815039
95.971200899057
96.0685363206809
96.1053030324645
96.115569164949
96.1790910420778
96.2000240910133
96.1779617849498
96.2079470344039
96.2105448741127
96.1862460419557
96.2485546060365
96.3249808173362
96.3177180373488
96.3148247708083
96.3214799092214
96.3316417048525
96.3451512936279
96.3372350435055
96.3246377069063
96.3293361031633
96.3043823947343
96.2775972648291
96.263004522197
96.2373267306362
96.2205703157277
96.2385550671575
96.2592880262211
96.2891073045119
96.3063900052794
96.3239610950852
96.343649807048
96.3600152140661
96.3498214111217
96.3081722743301
96.2719746105811
96.3147102917597
96.3654068909428
96.3671974345985
96.3650006250825
96.369480257283
96.4054098543796
96.4302521368
96.3791695380515
96.3875859882614
96.4119535731406
96.3971322395759
96.3979939240325
96.4040542174449
96.4130038502783
96.4164966487056
96.4140400185506
96.4389312721193
96.4466348506676
96.433454966078
96.4142347072545
96.3835518225213
96.3914876550406
96.4144711200569
96.3917114289985
96.3796424630029
96.3893639532233
96.402450326148
96.4111317061941
96.4228304531379
96.4215814578311
96.4526682828483
96.4772397696229
96.4688254030459
96.4605454923652
96.4447700342525
96.4217455459038
96.4466180658292
96.4618103059544
96.4313637546142
96.4499960658777
96.5041451997449
96.5098526780899
96.4898495745004
96.4628996336033
96.4753716313003
96.4994489375117
96.4860177831368
96.4793117238499
96.4920991782387
96.4862252373567
96.5058416561145
96.519421773026
96.4937756450863
96.5152690978222
96.5415605022154
96.515657489711
96.5311228428894
96.520008079224
96.4739762234362
96.4651011235073
96.4686488072867
96.4994352790415
96.5505145181176
96.5499711205136
96.5216409633313
96.502620870599
96.4673556518216
96.4356315552238
96.4216249940502
96.4248819207372
96.4484346911236
96.4338880605483
96.4116909205143
96.4364916620156
96.4964563194793
96.4881051267537
96.4433292515339
96.4475622911696
96.4843819125418
96.4862579010579
96.4495228703357
96.441860011825
96.4634934418963
96.4501267232196
96.4270470574409
96.4536735812465
96.5026830324071
96.5271523605155
96.5186271522841
96.4961026701744
96.4803015534307
96.4806505703842
96.5014680489127
96.5161930490815
96.5705001899577
96.5838344860522
96.5559361647556
96.5551685988883
96.5441418664276
96.5785347288657
96.6327388299186
96.6093012068142
96.6280750209159
96.6379612066087
96.6021439898369
96.614135754749
96.6466710000952
96.6132028701849
96.577353430236
96.6063447598365
96.6282403209485
96.594429853323
96.6018121773858
96.6663041204404
96.6570612603475
96.6134319680794
96.6599002491924
96.6848213496676
96.6493112761527
96.6252801683692
96.6541550978073
96.6483719806283
96.6126521500016
96.6318609830024
96.6808528192999
96.6711515717722
96.6533216107055
96.715416512686
96.7578549990699
96.7026425095489
96.6839955991525
96.7106232445464
96.7340645386902
96.7062882164253
96.6782720430215
96.6628149554103
96.6516020821688
96.6534137392125
96.6656076047168
96.689832663923
96.7151976334249
96.7069501225182
96.7003407388136
96.7117656046156
96.7818127902929
96.8135666783207
96.7512755327785
96.7218598499471
96.7482733788216
96.7592401318204
96.8495709270388
96.9026324589186
96.8172665475013
96.7757630108727
96.8008092093367
96.7736690159288
96.7156529359013
96.694626117955
96.7317612048496
96.7859887102842
96.847229934919
96.8073910945182
96.7528254015699
96.795080275369
96.8093060670208
96.7602988424966
96.7408287125224
96.7684063902184
96.8095977694914
96.794822235723
96.8089589762896
96.8456359064326
96.854092356648
96.8417774334468
96.8700283441667
96.9302469283457
96.887093562355
96.7907597913138
96.7577222347016
96.7191360052416
96.720154670385
96.7985201164344
96.8846905568365
96.9155941490777
96.859431551263
96.8242403538735
96.8315366946642
96.8331869677253
96.8044901137149
96.7449031381179
96.7515734934854
96.8108624930723
96.8721053335254
96.8729827564994
96.8621471010697
96.8324885164286
96.805976721081
96.7960412160254
96.7264562979798
96.6802948673183
96.7048263551709
96.7354663592807
96.7463336982664
96.7443836582245
96.740639799326
96.7128017395212
96.7402530157928
96.7994747173193
96.7703379819848
96.7089826772727
96.7125040400454
96.716522484385
96.6774843549252
96.6520628071928
96.684418759152
96.7001778153223
96.646391066791
96.643467779339
96.644199312675
96.6501785318612
96.7047810558923
96.738102027296
96.7741703667364
96.7844855068741
96.7067547346592
96.7037837065755
96.8597169288802
96.803471428993
96.6837731959864
96.7456348292929
96.8235547535506
96.7936392676081
96.7747373740341
96.8415841498443
96.8288852097511
96.77138527075
96.7003928929924
96.5993124578688
96.5259895765083
96.5863671066086
96.6920162292324
96.6878874864079
96.7675007105848
96.8302700877944
96.6598112626088
96.6157569255939
96.7744848972255
96.7708122546808
96.6195448568198
96.4774668107303
96.5071842963112
96.5441116403531
96.5496772971948
96.5880343941036
96.7221905398385
96.7781926552664
96.7110959145482
96.7010366071982
96.7188101427805
96.7113343181484
96.6854223298572
96.6728500403853
96.735690791521
96.7740508428181
96.7903185661211
96.7844133398131
96.7572424601707
96.7468692421023
96.7375319733985
96.7372444010405
96.7694107944705
96.7930555315681
96.8165567133525
96.8621771201368
96.9509103655855
96.9595329270966
96.9646865743889
97.0642621163514
97.0727628070392
97.0221667736899
97.0704583482887
97.1536397155077
97.1880770857253
97.2574445578302
97.2274129303483
97.1265271731393
97.2079123854412
97.3210855902595
97.2536766769687
97.1725699882221
97.169270564878
97.2939378141868
97.402006404059
97.2898176881231
97.3287600420768
97.5467908084728
97.5810424730048
97.4354968117939
97.3372329703005
97.2588326354857
97.319719930291
97.4428046829197
97.5872894851646
97.659341918455
97.553671763699
97.5421794267627
97.6125627062309
97.6414170382701
97.6888643344999
97.5902503069885
97.5969145164453
97.6339798883117
97.5970694804109
97.7608855757968
97.8777810890736
97.8195932208074
97.9714186932699
97.9942560782424
97.8184018487697
97.8837460678965
98.0859636885558
98.0875364275366
98.0121865463828
97.8502050018324
97.88446727645
98.2152157596098
98.195762188329
98.0434786147337
98.0115540349742
97.9059880441246
98.1158311764958
98.3685040760349
98.3225669319232
98.1991480926986
98.195778312926
98.1802120647234
98.1305390853522
98.3763861205606
98.797155194797
98.6339475075234
98.2875244589711
98.2034088044825
98.068141234753
98.0483839645754
98.1961627037097
98.0875459545837
97.9305439883809
97.95177999464
97.94269874563
97.7343345930447
97.7168489195494
97.7730127014717
97.7465837128682
97.770454459116
97.8269279749032
97.7064425679487
97.4695876889842
97.3315489261594
97.3169217552184
97.2720451988666
97.199627930745
97.1441194010548
97.1194795921726
97.1538837930907
97.1876497955418
97.2382984158799
97.263517575057
97.2621285684267
97.2969744522192
97.275609239022
97.2606563116075
97.363643192761
97.4656751186279
97.4110985172639
97.2962454317601
97.2580674855772
97.3102731571463
97.3557436833743
97.3936917604566
97.4629551820351
97.4792788959107
97.5358457008767
97.4730974251144
97.4386862388373
97.7273866732013
97.9084510763379
97.7598349642656
97.5872728481493
97.5559305603413
97.5665857368008
97.5271673458205
97.4832366567959
97.852540310695
98.162969692076
98.0581522133915
98.0075605147376
98.146487601893
98.2816088861331
98.3586344122598
98.3273216100373
98.4546838619421
98.5525326718217
98.1824147546286
98.2056946713712
98.5146379036042
98.6452249351293
98.7109062076309
98.3765249959862
98.0138013803785
97.9738029982351
98.2911284730762
98.6140701754228
98.7423696016912
98.9171420837801
98.7117647587625
98.4486588095775
98.2619284914248
98.3555692260794
98.5904080751015
98.5610749237699
98.3743233677801
98.0612487342402
98.0378695526691
98.1933705599988
98.1871382806256
98.1723990069348
98.2389625759751
98.2976047990132
98.0937194687998
97.8307918752586
97.9461664546431
98.0322218108432
97.8502490847772
97.9791913309357
98.4091852601782
98.3205323869647
97.9792590872138
98.2460031009238
98.882397843699
98.8223419541972
98.2265213464632
98.060560604038
98.2256490212327
97.9311344544846
97.6716626321522
97.7941011994889
97.7429512023656
97.6573885468926
97.6243946645604
97.5615240442738
97.6260381673347
97.6607206596891
97.5981619137432
97.6323665738018
97.7573022002206
97.762041917694
97.6551427891572
97.6094729787874
97.6897863263785
97.7332672785917
97.7436550104326
97.8055519014763
97.7517789727115
97.6994727344866
97.5942867455618
97.639162305992
97.652128506756
97.6279197623924
97.7510638109166
97.8133341757117
97.7216922130649
97.6331277571502
97.775575156626
97.9236022600938
97.9695486478093
97.9007429843167
97.7970047365352
97.8316773022128
97.8831763978422
97.8541095497566
97.8498237550732
97.8690798047985
97.8442163786527
97.8711838385397
97.8736737986747
97.9339608232982
97.9479004122213
97.9579372066602
97.9085211258227
97.9132708364646
97.9507390138052
97.9542876911487
97.8838719986322
97.8073312047585
97.8641354778518
97.9589655725115
97.9732421086038
97.904651517617
97.8442535246759
97.8892387431926
97.9160588795545
97.8865700200115
97.8592009033395
97.8369910099434
97.7500918920415
97.7190380769164
97.6240838898578
97.7720982673399
97.8215802720834
97.74182370363
97.6768498566352
97.6835783508162
97.6908470302632
97.5860832668468
97.4370279264505
97.5941063702663
97.472912304331
97.4618603245872
97.5458100275592
97.5905317359972
97.63204275255
97.6760559304651
97.6755195657523
97.6168982422008
97.5321722906543
97.577696395768
97.6191036437381
97.6444448589359
97.5654174322216
97.4580071328344
97.5208228074073
97.6607866968971
97.6664496622702
97.660723071408
97.4747341920549
97.5738310383709
97.7267646006023
97.744088991811
97.6636080559449
97.7807215631614
97.7360883893687
97.7295485671263
97.7646363288393
97.7777641207788
97.728777156929
97.5777574781124
97.7168165954144
97.6709367410792
97.716247358862
97.7422951975683
97.6529076412377
97.5949501753015
97.5575430910382
97.3453720707494
97.3099928792727
97.1531723021969
96.7630805548049
96.3153938636184
95.637426082984
94.8629621075444
93.7729562192052
92.55980851736
91.0466097755654
89.3237854398269
88.1500818139156
86.5446413944514
84.7750023936359
83.2815354237715
81.7491164549349
80.3112385165735
78.9491359285089
77.4654197535715
76.1015216233565
74.8718830170925
73.4520182651275
72.159934082111
71.1107694512262
70.5826259077935
70.4342614454034
70.6095574804544
71.076664391294
72.0966598784527
73.0013110134721
73.5785002118036
75.7374706518998
76.9064746179782
78.1781621593393
79.9174358399169
80.3439418912465
80.847837905229
81.4983430030451
81.461184936452
81.5922420725499
83.6609634412037
84.178592898112
84.4541803891223
84.4561084055735
84.9979414508843
85.9984204930479
85.94871132863
86.3639409358372
87.679811851756
88.0741390121674
87.858847315982
88.4573907964708
89.319272017658
89.4907741500921
89.1918264869689
88.0971892980967
89.2658246567542
91.3903928565973
90.8973576208951
90.319481500947
91.3343457165174
91.855815983842
91.7095225289009
91.5316021195802
91.1956978794274
91.1138532232571
92.3819694832981
92.7470020439182
92.467473192196
92.3098984808599
92.5893721458483
92.5935842520912
92.6930164249903
93.1220467799738
92.9165999252875
92.4758141424756
92.8582749417173
93.1150977920672
92.8937497226232
92.8769756448533
93.0399979193662
93.345178450308
93.4920896675031
93.6535496720221
93.84847816801
94.0807769982944
94.1733894647567
94.2489104498736
94.3498523348749
94.4371826400003
94.4258721696937
94.4246843894752
94.284277508299
94.0635268229841
93.6592350142271
93.2152764461085
92.6186842326183
92.4564409822007
93.3797444648698
93.7300965249613
93.583013332435
93.9919802039705
94.5210883884096
94.5456723361196
94.6692018222848
94.3197693316392
93.5122153849857
94.7865359471844
95.402892761324
95.2557373907249
95.3024576104603
95.0869949139434
95.308109274697
95.2336947127926
95.0332208777473
95.0290523966046
94.8991366717769
95.3569486830772
95.8940618866668
95.6419756614554
95.3165506111591
95.6528003552441
95.6428489133316
95.3733594095444
95.2159171155854
95.3523556315051
95.0784435708037
95.3235138421023
95.6097340338622
95.5281746726076
95.8046064943474
95.7069520432411
95.3451764906548
94.6161473374814
93.2015035263752
92.358483078008
92.6104220049348
93.0251925516418
93.6529079703979
94.371252777228
95.1213267172279
95.7736505027469
95.912357061857
95.7025878342356
95.7579777051235
95.8416446391983
95.8304429305204
95.5913616891856
95.278858837122
95.0950612780053
94.7075358876109
94.1999558402367
93.574375250453
93.1639890224908
93.4625368068
93.6278698664622
93.7085414474761
93.7900201045626
94.0290847406762
93.7547976069118
93.2760414984732
92.9593092435352
93.4054907596828
93.3782646528
93.3489143468919
93.3183222717087
93.3876186356901
93.6507677511319
93.7590982377365
93.8223507855708
93.927127156515
93.829265624831
93.8849834188307
94.5482602385576
94.8593207167909
95.082122318877
95.4094332183393
95.7742997857467
95.8284577727989
95.8254567691591
95.8269488939577
95.4003706516034
94.7437555725034
93.5984537236456
91.7814449098483
89.4859057406419
87.3163158922155
86.1286420465292
86.014971891176
87.0355104531818
88.6400781630021
89.7958275442352
90.6678567769813
91.6599711265241
92.2321182121972
92.8389469129624
93.2371852688442
93.2941149232167
93.2313683647782
93.3411383805614
93.5059839749047
93.5487317711962
93.5823307703852
93.5502970822958
93.5235980214201
93.3038309771055
93.182719259766
93.1633148607757
93.1065054308474
93.3031092692244
93.6804277070363
93.9293374408055
94.3459814827086
94.8277100419813
95.0603013297987
95.1089509996443
95.0375316692133
94.8218146292857
94.3579010186989
93.4599569195849
92.0266242500319
90.0220048318042
87.7519156088307
85.7591553548643
84.6999073580729
85.1550440805523
86.7261671512254
88.7921106216811
90.8429919768074
92.5158683664333
93.6380442595073
94.281925600815
94.5811786641457
94.6785036665652
94.6205720801975
94.4622615393348
94.2766980520107
94.054505185826
93.78426968981
93.4918519663678
93.1411259853059
92.7560511503198
92.4245676210868
92.0808126531866
91.6794489355071
91.1636604556245
90.5130111813777
89.7233830681283
88.8773506812091
88.0392460176428
87.2232664145636
86.412956595614
85.6173313486765
84.8502267629998
84.0630346065639
83.2673685101695
82.4803470707632
81.7017433650066
80.9280368136328
80.1598578963281
79.3738936678058
78.5665336893716
77.737679127684
76.8617924589776
75.9785034239209
75.1802416740193
74.4781660747253
73.8684493462392
73.3629386364255
72.9532048871829
72.533635076699
72.0488563054432
71.5302980369656
70.9862393174567
70.4201584153001
69.8902631826124
69.4505061302284
69.117812470711
68.9153715075322
68.8728076728255
69.005369596802
69.3249815061008
69.7677357847866
70.2747553739202
70.8266084103336
71.3826176679798
71.9244734752932
72.4961289264682
73.1270747334644
73.8372299467645
74.6259421212245
75.4535225267304
76.2720965318275
77.081520435894
77.8775907909918
78.6493919589719
79.4093305058452
80.1683216672851
80.9284001634571
81.6949080167318
82.4383040810792
83.1723472246852
83.9244354419872
84.638592728348
85.2923592958199
85.8794027737931
86.4019766927534
86.8316041207087
87.1434442249451
87.3476351287986
87.4490800533184
87.4690613330126
87.5003105726957
87.6638443041874
88.0147361130095
88.5528671027902
89.2127698133941
89.8461335210274
90.3573488637578
90.70145682078
90.9246417795672
91.0854035560962
91.1807967785914
91.1742005505178
91.0538828093595
90.8304491212265
90.5236122393485
90.1233137351463
89.6323773134465
89.0186183678009
88.2493788532061
87.3145637107964
86.1910385059774
84.8369388695499
83.3036182974723
81.7377766401358
80.29048323081
79.0234513644828
77.942773095426
77.0282877761304
76.2582803815487
75.6124362859297
75.1088721574238
74.7909714766295
74.6979179955993
74.7571627281867
74.8060205022504
74.7429746829809
74.4914642651777
73.9837018515165
73.2983473240472
72.5474898117455
71.8278593422204
71.1903927318551
70.658174969146
70.2504685176814
69.9594826086294
69.7944879098808
69.7272358994309
69.7441947840429
69.8275184699222
69.9620010631209
70.150887291123
70.4178718900916
70.8262880170785
71.3888870996484
72.0398230325663
72.753934480342
73.5037833165232
74.2324416559006
74.9555283198962
75.6594956733984
76.3380992580815
76.9911615636923
77.6124059527365
78.1737095329887
78.63403489823
78.9967305485518
79.2567057991061
79.4070001910977
79.4874320334879
79.532663540974
79.5655305957685
79.6484145040234
79.7942834668764
80.0050892907947
80.3080437369164
80.7098583062912
81.1965705656562
81.7689267616788
82.4034586760748
82.7380929623635
82.1259181740866
80.3455235256282
78.1795628617153
76.2828657581937
74.5415272976355
73.1164536556113
72.6531245614584
73.378974787966
74.7575883369584
76.1610841300041
77.3328134558077
78.2806720269649
79.0283481125931
79.6617125366006
80.2063901640732
80.6815493110024
81.100959009843
81.4605941567523
81.7510295735516
81.9709032201956
82.1250618333548
82.2564331409586
82.4297256086225
82.6106024600666
82.6837695680453
82.6151132386426
82.3604557087284
81.929061265472
81.3909776830414
80.8569534529007
80.5092080211211
80.433309309888
80.6235132752248
80.9565819079479
81.3359572871224
81.7311987256137
82.1300575136522
82.497244651522
82.8793891966726
83.2293760763147
83.5115702718515
83.7683353649388
84.0123979163603
84.2380718365576
84.4667052142146
84.6826566144225
84.8348518782258
84.9592509369179
85.1153292030033
85.281138561992
85.4401152857551
85.5764902280689
85.7099466908922
85.8722378539974
86.056576511158
86.223377861656
86.404110830252
86.5607958304116
86.6603942582841
86.729184726277
86.822400930151
86.906244997563
86.8734103279422
86.8284795820551
86.7545556596248
86.5566920337107
86.3718900776073
86.2348220906364
86.1193101630926
86.0323684364391
86.0525692688446
86.1638337792301
86.3049723444628
86.4236625854686
86.5449117253278
86.6124899692661
86.5059677624369
86.2466138482602
85.7572354305813
85.0133143818693
84.0687017649385
82.7785983814796
80.7905049311576
78.7190152734694
78.2504734536645
79.413926796807
80.8019050646609
81.8063644590573
82.4492861140164
82.8303609797978
83.0407589544743
83.1480543130651
83.2116038412198
83.1680012219527
82.9506094730369
82.5885726207982
82.2142287426948
82.0049401626439
82.0392856249399
82.3219176453754
82.6711422860994
83.0114830732439
83.3931934381608
83.7495035389969
84.1126298432076
84.4705171485926
84.7922744325027
85.0703593921601
85.3233812484576
85.550954995294
85.7682093080986
85.9682917566176
86.12604167514
86.2131732318938
86.3150724864464
86.4876686941592
86.6282185189165
86.6875457281436
86.7459795605455
86.8243674984208
86.953874419638
87.0676124808224
87.2248011629038
87.1808607097798
86.5735191175981
85.7466610463636
85.3892791329636
85.594193019155
86.0459077815042
86.6077333237943
87.1508718524644
87.5609856515604
87.9250489260568
88.2497235730007
88.5812024782996
88.9190994202136
89.2879405025011
89.6821964290874
90.0083200032722
90.3288331759154
90.6964639740916
90.9958829732861
91.3664723313518
91.6778449662663
91.9725961061626
92.3029966381001
92.7697622199446
93.1371260737617
93.4424449499146
93.7295531499955
93.8823044146645
93.8592840433409
93.6092991592191
92.8149263212139
91.3033223897028
88.9058317185058
85.9266665424134
82.811272216312
79.7684577320031
76.8331299547255
73.6549751026476
70.4131688765792
67.579748132316
65.8307627188362
65.4024996816656
65.8273519615775
66.7144451888485
67.8547835012954
68.8819303559474
69.790869534048
70.6764386904407
71.5715596438102
72.3771715764396
73.1202917955088
73.7840056634831
74.2170609148165
74.8769372516906
76.0077925516921
76.9251904643497
77.5426593245751
78.0361855317806
78.6228491963374
79.081918561416
79.2519519332064
79.3301441007145
79.6832839027478
80.0189678801083
80.2079395273404
80.2640603032126
80.6035578511593
81.037670319253
81.0624611700993
80.9650523189328
82.010061749948
82.1223726064101
82.2001083665134
82.6885032630052
82.6342824185507
82.6785471631284
83.1114138391287
83.3538918038388
83.4145637977127
83.4065748569047
