1798
3999.43349933624
650.420452594757
1
128
4
95.7587779848684
95.7393201137502
95.773052724956
95.7572143149722
95.7024637726565
95.6904605410861
95.7353342412984
95.7281174130764
95.742420184199
95.7348607944728
95.7382466399949
95.8135894624393
95.8488474856958
95.7874353742536
95.7732754946798
95.7251280231532
95.6922675379009
95.7472450650943
95.7631546159991
95.7262974624084
95.768580861128
95.757783539976
95.7573116400698
95.7959781235113
95.8121653553819
95.7453887949436
95.7172994000082
95.7551865526853
95.8095165477948
95.744941971994
95.7474139705804
95.8530485105033
95.9029717503916
95.903865347007
95.8824226126781
95.7596791628867
95.7246274292799
95.8003317599575
95.846516874478
95.756912512393
95.8041095410327
95.819198625301
95.633331330708
95.5413135336789
95.6633734844402
95.837863683888
95.9098994986805
95.8680362546216
95.8284562333563
95.7705086853502
95.6314118451511
95.5263391614884
95.5546777053783
95.7975414065903
96.0897300355298
96.1129799599009
95.8685551481648
95.7558658621051
95.8925635997336
95.8291371047815
95.6758631645473
95.7770715346304
95.8026008163556
95.7783136431694
95.8915847969333
95.9381273377803
95.9011010768523
95.7994838612493
95.7185162787293
95.7532970226372
95.8537281094139
95.7860025154004
95.7925836408433
95.8692438616738
95.9110673069971
95.9001499343923
95.688511274844
95.2730311743015
95.4779081491642
95.9981385795607
96.151659845317
96.1074511577713
95.9924873694813
95.9121964945414
95.7790593686395
95.5514711504974
95.609827002818
95.868483050135
95.9088715764081
95.8394046874202
95.9467844802764
96.0312315698889
95.9903616024883
95.8943145907621
95.6997736323437
95.6764097914484
95.8120859937954
95.8292446649672
95.9399476684015
96.0845383190478
96.0221252062428
95.8518639306495
95.7797510850322
95.8083848548365
95.7528601128518
95.690146259619
95.7901460645337
95.8000949419232
95.7821996993013
95.9137896209662
95.9463231744061
95.9272950855191
95.9388244357094
95.8597563289156
95.7779592325922
95.7437035916446
95.7094307138233
95.7287365177256
95.8383371611365
95.9023946732347
95.8516184692571
95.7664233268833
95.7773923152209
95.7808180678411
95.7692861422814
95.9083793775129
95.9849005724916
95.8353962802558
95.7182050110263
95.8399476342944
95.9319632846335
95.7802519309213
95.6507733285827
95.852692391306
96.0004074483434
95.8388633314533
95.7896868860814
96.1406635147505
96.1214936073633
95.9108160541598
95.7920211918909
95.7448569670523
95.8255314803225
96.0010947825075
96.1460293316923
96.1376575840622
96.0980783959038
95.9848455680669
95.9044432701473
95.9062642834188
95.953330736673
96.0279197350381
95.9614072442012
95.7624245339256
95.7695147840295
95.959639053668
96.0611357317634
96.04521605759
95.9912880209236
95.9150358296371
95.8372857719266
95.7968316269708
95.9158662161862
95.9647040470389
95.7569622373858
95.5456534653001
95.6567709539842
95.8703466189045
96.0282203074521
96.0811063698091
95.9981217067055
95.7998269260737
95.622281188294
95.638545076537
95.8774537017722
95.798879708409
95.6906018203548
95.8864515997438
95.9975544237689
95.9723038271614
95.8898129197845
95.7908365114477
95.7334725563571
95.6718339984093
95.7169957886932
95.6890422822879
95.4910344590365
95.3770842980948
95.4632832253838
95.7491034121766
95.8620074444635
95.7682757540863
95.797074409756
95.8189951604879
95.6897029876128
95.606877381616
95.625779514304
95.5060092824189
95.4467351774076
95.7789152224675
96.0016186893935
95.9268300417466
95.6902355896793
95.4442681582321
95.5480271119972
95.7656843579353
95.7387641929056
95.7129019211462
95.6858148109316
95.5885290747152
95.7202799776296
95.8586398598778
95.806678684545
95.7732433805558
95.8728733443178
95.8801675277395
95.8497813432629
95.9684495096998
95.9305191215038
95.6373174694552
95.5350304127143
95.7377127778935
95.8357034017115
95.8569877223465
95.8493396311224
95.7964790927853
95.7876877860405
95.7941261565269
95.9026198642061
95.9015773690959
95.7647608240624
95.5496248207648
95.4741083621883
95.6387773305125
95.8326675458312
95.812107249497
95.7824237210082
95.7338259357793
95.6049869958457
95.5986683965091
95.6785935997475
95.6935058152671
95.6684596954419
95.6185281643254
95.6505330532472
95.75201457114
95.7660126405007
95.7082436805142
95.8347070263574
95.8701927100105
95.7285122777601
95.6311290565837
95.6110782213807
95.612618750446
95.6211720844635
95.7709089653258
95.9267851875017
95.8894022653174
95.8437558598933
95.8009369334342
95.7907652673325
95.8815320645881
95.9378992109908
95.8607599895309
95.7409387868944
95.6863916387551
95.7932979369451
95.8690746146298
95.8942417715386
95.8892086568092
95.8416478696287
95.8670063677192
95.9287844864837
95.8368957373999
95.8087831399763
95.9414275505789
95.9480254098143
95.771070355223
95.8110227087458
95.8842443662204
95.8955275912267
95.9253390139591
95.8368600919401
95.7358669913589
95.790040344664
95.8871903133903
95.8776208533267
95.7274415975773
95.7259079435295
95.8582100549703
95.8888703000682
95.8154618769265
95.7248375452325
95.6878846056115
95.7116905037962
95.7331161091515
95.7311718861931
95.6310800652381
95.5348171136128
95.4358815781801
95.3804057764145
95.4098904920512
95.4430922017269
95.3615905491131
95.2339386748867
95.2660588464723
95.3874686482076
95.4218451456124
95.3621528482266
95.3047874368282
95.3817130974273
95.4864167449137
95.5001935300287
95.4592070490479
95.4554178746414
95.4798564610535
95.5972298241066
95.7501351782795
95.688656394469
95.5858550141903
95.7089486079852
95.8446810406957
95.8047499753374
95.6941389647739
95.6869241113692
95.7264664460067
95.8125797460888
95.8814445667305
95.8445528749097
95.7996250329082
95.8059616363927
95.7609898041222
95.7492486823627
95.8002109087062
95.8348535793543
95.8574141010748
95.7937299013312
95.756996500695
95.8119801274715
95.7603393839758
95.7118621956041
95.7978388882926
95.9702736835722
96.0007819893707
95.808479545881
95.67172531197
95.7524345698989
95.825098222156
95.8194198131041
95.773299136769
95.7531185011422
95.8474194744024
95.848021891197
95.7731672940406
95.7276695687342
95.7420708872489
95.8193822813562
95.8383444480248
95.7689790240988
95.6340263020467
95.6628189917903
95.787132349355
95.8008252417646
95.8058686798964
95.8492977230949
95.7964556553198
95.7659231619095
95.7890274484562
95.7796410401094
95.7579354135039
95.7164612650772
95.7240539076831
95.8457225280238
95.8781060345237
95.8060704190045
95.8074507440283
95.812080270259
95.7991049379674
95.8546896199782
95.8774210207441
95.8379160385403
95.8213441571999
95.8603778173912
95.873746054321
95.8339001065389
95.8328041284179
95.839076403386
95.8159286320591
95.8840553007725
95.963970275726
95.8823040019663
95.7781515237069
95.8175602482315
95.8561376085684
95.8354437563412
95.7797238640263
95.7447506198177
95.766786986664
95.8146059903655
95.8763059580964
95.9408915030145
95.9137499351516
95.8416350584287
95.8233158101531
95.8640534728935
95.8891959613657
95.8888856158402
95.874919758098
95.7986547069907
95.7493126815675
95.8123613072029
95.8420969558837
95.7988321077695
95.7445184036322
95.7766626835399
95.8852529791612
95.918309034937
95.8472423355597
95.829673867267
95.9129209645509
95.9148206793295
95.9046555984586
95.9658892017619
95.8670450539668
95.7661630584277
95.7791515004376
95.8343182110635
95.8687644494296
95.832790465525
95.8291511858243
95.8632705130067
95.8266277810805
95.773864346469
95.8622992332758
95.9317035492726
95.8832334623258
95.895487420023
95.8556765884053
95.7908766893612
95.8374605099324
95.8768086671886
95.8780571904965
95.8600348445095
95.8226565673012
95.8594485439267
95.8810154738967
95.8456045906851
95.8592040252301
95.9007755598344
95.8628849729168
95.8411963844709
95.8390657799022
95.8406547857645
95.8806411245617
95.877296906852
95.8638038492643
95.8998656019703
95.8805482154042
95.8114147675565
95.8064353829028
95.8246336305584
95.7503086998374
95.6674549284702
95.706074478804
95.7844165675172
95.7679023996608
95.7351493021861
95.750341562419
95.761284656037
95.7433147307999
95.6907648617498
95.6553806055027
95.6753365325133
95.6801483945903
95.6589440981666
95.6537908841797
95.6554145801119
95.6436891696751
95.6221224017195
95.5463192557966
95.5018231120873
95.5409086475534
95.5893810967818
95.5297771411056
95.4649465262046
95.4985988411865
95.5435820476119
95.570409288535
95.5592110949443
95.5146741263188
95.4478018342439
95.3794639810536
95.3904559910675
95.3884535120059
95.3526084043659
95.4050855074267
95.492572752671
95.4552825919364
95.3142777166846
95.2819452916814
95.3562546497532
95.3798484450321
95.3888918812379
95.399564005149
95.3898306474498
95.3489518932718
95.3250157816553
95.3270571751035
95.2877438756392
95.2911800212129
95.4287441111399
95.5392869204174
95.5541296695005
95.5795835855019
95.6290581314888
95.6577494677995
95.6731663855874
95.7097220017779
95.7352572085649
95.6857224987891
95.6531468232301
95.670473138089
95.6523929259092
95.5787257283798
95.5492970858241
95.5294561672946
95.4494004153182
95.3654367362763
95.2686105367816
95.1984794403242
95.1980096083551
95.1512351407429
95.0377473120097
95.0018555697223
94.9964500447041
94.9176839513779
94.8668427875549
94.8699580324852
94.8668766602177
94.8605552012839
94.8621288625647
94.7943896527239
94.691061379316
94.6235987389214
94.582644813395
94.4958493655589
94.3497171330891
94.2217266693761
94.1240504109311
93.979182626225
93.7510902887146
93.5508859647893
93.4424062518387
93.3982090788137
93.3981599089703
93.4023126097207
93.4038535692136
93.4174773994158
93.4799293034962
93.5895623494768
93.6727569036942
93.7541888592306
93.8867776579637
94.0285883016189
94.1793290702844
94.3276714057905
94.4487986802717
94.5289206692602
94.6558806183892
94.8087905739683
94.8831406904184
94.9646354227078
95.0634619203181
95.0937537896895
95.1046519159445
95.0905508327004
95.0551073298009
95.023657154028
95.0191637441407
95.0246606948647
94.9433351384563
94.8772936980797
94.8461225993517
94.7760781981459
94.7057761367042
94.6288375310628
94.5774816953923
94.5779457923495
94.618696806797
94.6823647063507
94.7394256083179
94.7800193728327
94.8103378377327
94.8367638704867
94.8796242568002
94.9275599561429
94.9266568705626
94.9110369486705
94.9552026065766
94.9720302510219
94.9825014183341
95.0122083243517
94.9793409068754
94.9801563654306
95.0721502177306
95.1303080269066
95.1135221152905
95.0898074671842
95.1018243003032
95.1310366353175
95.178428517543
95.2143070646979
95.2344256052921
95.2453008546496
95.2131512832544
95.1875572963135
95.2366063849627
95.3073087436493
95.339048226444
95.3727286249721
95.4076805090602
95.4324724187126
95.4896626780922
95.5230874014397
95.5293732530835
95.554976695601
95.5617196725804
95.5738091590267
95.6049505790587
95.6210687707614
95.6372889589736
95.6445084771838
95.6384963740883
95.6368260434176
95.6266191485393
95.6168913292194
95.6154222537449
95.6117014249882
95.5963575110937
95.5884610442981
95.6040813584566
95.6119479720921
95.5994030899757
95.6140424231639
95.6526731812685
95.6375752701817
95.6216484760272
95.6541876043189
95.6576043663761
95.6641664489078
95.705264315066
95.7352146309375
95.7589432667203
95.7759410608533
95.7772929249906
95.7443100847428
95.7357434854156
95.7663278920322
95.79194659669
95.7988086311387
95.7619889189296
95.7567507170915
95.7591956110619
95.7251161418208
95.7643772474999
95.8248015128881
95.8206341078102
95.8185115960903
95.8254648340325
95.8152844629323
95.8022478077405
95.824446022553
95.8425225211834
95.7837695949823
95.7575874329185
95.7998316661775
95.8378796339154
95.8745726850929
95.8739683727218
95.8428432764975
95.8084024899873
95.8009382300354
95.8358459406102
95.8655278664211
95.8757882349538
95.9014902580643
95.9251899623068
95.8927302613653
95.8752166456127
95.898647077981
95.9013475150854
95.9164565445504
95.9492285070527
95.9441931980832
95.9252759077105
95.938051854899
95.9537106279177
95.9664599288011
95.9703800518688
95.9698641126491
95.9628321873668
95.9613576501319
95.9627800154525
95.9503546646112
95.9482384643751
95.9797155391448
95.9856757589901
95.930370762608
95.9086854126623
95.9397564745261
95.9460135251425
95.9519762208036
95.964146911237
95.9590578630696
95.9780157875475
95.974388523277
95.9235325819198
95.8891608033469
95.8903129211959
95.9135862798732
95.9106030336947
95.8709759164484
95.865518177439
95.8843750387857
95.8854548254155
95.8889332241011
95.9255332088324
95.9411039564433
95.9140821846125
95.9062562317041
95.9155946315468
95.8923870485456
95.8678163562748
95.8763774568122
95.8818009677433
95.8688147219487
95.9024220764121
95.950631719514
95.955807690713
95.9544482336473
95.9622419396879
95.9630676202671
95.9862326360791
95.9884160318404
95.9315648333424
95.9154124689271
95.9435492663596
95.9535547654682
95.9816839647727
96.0131511978209
95.9991694278352
96.0165795473202
96.1101424035595
96.1467485491449
96.0738332545231
96.0026563962069
96.0075290057466
96.0310841493183
96.0259205901707
96.0591447738658
96.073264354315
96.0660166858939
96.1082124557107
96.1037735439948
96.0890551967987
96.1107406491149
96.1586441745218
96.1666263476449
96.0570853208253
95.9979214895202
96.0400081549308
96.1204000416765
96.1708127287911
96.170267969578
96.1597918080264
96.120991767227
96.1195402023154
96.1795846405916
96.1402350251597
96.0861684061403
96.1307448388484
96.1315055448703
96.1567306335576
96.2224576835754
96.1587675896609
96.1155603164586
96.1643114086687
96.1706121346406
96.168983455748
96.2135611347566
96.2658656834058
96.2840875616152
96.1957347489641
96.0911088346607
96.1625006792535
96.2478585193663
96.2598098209129
96.2691272989402
96.242040711783
96.2377928920968
96.2317949523987
96.1930898941936
96.2073425492855
96.2577143793198
96.2601975277838
96.2144590858517
96.219456699481
96.2613663160652
96.2292411067251
96.1790525008147
96.2344212465189
96.2669305330859
96.2363336750329
96.3034814458099
96.3467121472261
96.3347593416661
96.3465203555354
96.3307590547458
96.3016052817839
96.3351242968952
96.3514578877474
96.3332710141897
96.342012667507
96.3630547274641
96.3492384220608
96.3280294482182
96.3059767824574
96.2891220042252
96.3306358599146
96.3734201831519
96.3500012723568
96.2611620344877
96.2400071568443
96.3104735078582
96.3582499591905
96.3554279808635
96.3100622400511
96.3359405747389
96.4391550788738
96.3884855056156
96.3141907656106
96.3642294959399
96.3776291599479
96.3552522294655
96.3707848271154
96.3155471328765
96.271845816786
96.3391017477432
96.3338485192867
96.3108057357012
96.3711548311495
96.4049948258513
96.364048308624
96.3155923569912
96.2880484538125
96.3442231885692
96.3433700948494
96.2979298527193
96.3584985689622
96.3643073590609
96.2509906924392
96.2639267069254
96.2914587093525
96.2523803330012
96.2539394533262
96.2439933709034
96.2263224355228
96.2602254132275
96.3016751234825
96.2879087859501
96.245097913432
96.2635171279756
96.33101592047
96.3987973577646
96.3863229493578
96.3789564230559
96.4943088980033
96.4767485012753
96.379347896013
96.4397096328194
96.5192706175042
96.5079028279473
96.431823060287
96.3973534437667
96.4039126170484
96.3868305669566
96.2854730725693
96.2190696050247
96.3012963512034
96.4249412476131
96.4830531120297
96.4779306232223
96.4316297463817
96.3962586525663
96.4173266240089
96.4858548839474
96.5417293447486
96.4495727965896
96.1978501209632
96.0288214023715
96.1260338606202
96.2947170868852
96.357742032254
96.3152264826801
96.2922195139368
96.3397632703769
96.4115176888814
96.4433771549313
96.4133408167639
96.4430186506658
96.4931292827136
96.4165677508691
96.3485483253681
96.4058675356336
96.4526143630745
96.4620831773783
96.4119849937985
96.3407084201681
96.3773392715791
96.3772553086678
96.2878696307882
96.3297911180469
96.4170719040955
96.4318121568343
96.5054979562779
96.664402316197
96.6675048132985
96.6116169282749
96.6996745517338
96.8263618131808
96.8300263363302
96.817394853301
96.7980324795618
96.7041511854686
96.6714631550283
96.8251520790066
96.9373089684084
96.8205744440931
96.7379135011232
96.7415352769715
96.7217956988687
96.7493938380907
96.8218550629404
96.918553291352
96.9678936447505
96.9537684977137
96.9875976498602
96.9722101769069
96.9438224070615
96.9870169191478
97.1221112842836
97.1597284918974
97.0340039177177
96.9584486633672
97.2027833142107
97.3960398032006
97.2363723476795
97.1454383269263
97.2451269046989
97.2836176299091
97.3024982723894
97.349788640006
97.281177737054
97.1336646285816
97.0892210020148
97.2117885416989
97.3752548122179
97.4281750072721
97.4815784794696
97.5376647041344
97.3919837816668
97.3461966663684
97.4486888461981
97.5319952066642
97.4155337737017
97.3375647894104
97.5584908312194
97.6515923984446
97.8652147126578
98.2746800809103
98.0671137958057
97.879330046937
97.735385516782
97.6159261792066
97.5502502371242
97.6610270813496
97.8751102120391
98.2562155373729
98.4882892916807
98.2215227938482
98.2065112918021
98.2743648212886
97.8352861538024
97.5128810041527
97.6628120994801
97.6020140775597
97.5313434411455
97.7531924137806
97.7144268224504
97.501306865404
97.5378949717359
97.6577666924516
97.5449230354263
97.3327293797659
97.205358762528
97.0919390438912
96.9208961047709
97.0187359632433
97.2026695512507
97.1974238946574
97.0881584413217
96.9748197038588
96.8820397950089
96.8351323785986
96.9368528561289
97.0703839937793
96.9523808158018
96.8183702770345
96.987064991907
97.1488660684213
97.0631986702253
97.0788727859696
97.2222422612175
97.1650686038312
97.0696143642774
97.1120943108884
97.0936247714062
97.1243648980712
97.2125540965772
97.1604383329234
96.9375276568231
96.9054009476235
97.0190801982391
97.0576583489085
97.1464594472705
97.2248898293977
97.2952960676503
97.4450489812392
97.5364025352948
97.7003361895435
97.7467959556321
97.6549760652691
97.6551100792748
97.6815304403712
97.520077013336
97.4495402030459
97.6447448744333
97.7766606575289
97.9825983708938
98.2983467893027
98.3948728160268
98.2221405022245
98.116117777757
98.0993885313763
98.1984604948593
98.2824847887197
97.9522102398834
97.7883286809694
97.8284182608822
97.9717658852696
98.0922745968607
98.1045834031511
98.1336325969142
98.2468800653155
98.414019062677
98.3888885147878
98.0058150999134
97.7410203415434
97.6759546685123
97.7172632246873
97.8237284186257
97.6853368012421
97.6166078755679
97.8972254915258
98.1006239054209
98.1550172348626
97.9575736621803
97.8943395884801
98.119094948574
98.1123060762428
97.8478685242472
97.8544373994525
97.9910867985322
97.789558506947
97.7890906942569
98.2601735555306
98.3677194010174
98.252444289357
97.947453042058
97.6450254841568
97.6027137614751
97.6454563894473
97.726701685755
97.6315456567314
97.4689858804246
97.4317594652078
97.4166227180828
97.4402657574754
97.5042826267524
97.6025045957437
97.5264664439186
97.3677204094847
97.3904114588136
97.4308090939246
97.4333996631843
97.5371844095959
97.5332445560781
97.3945965859955
97.3134478374978
97.3688367801818
97.4520670812344
97.5115381813296
97.5656248518116
97.6206031093033
97.5381048877677
97.5738434609966
97.6453546913433
97.636704172046
97.5508772806226
97.535584581519
97.6270360972801
97.6340387867726
97.6890395580192
97.8083989296171
97.7095214620386
97.6217398940903
97.691657483635
97.6843259395318
97.6850093362282
97.713784680353
97.6649219489186
97.7380350595751
97.8408176209397
97.8562073990518
97.8312729724619
97.8310216826627
97.7943074563504
97.7943883447536
97.8183291062728
97.8109828738908
97.8204418417319
97.908913889041
97.8676555287028
97.7991405589817
97.7502670940132
97.6777825340064
97.7139337552134
97.8204080071361
97.8214528465936
97.8018167938271
97.8070202944539
97.8095474534424
97.7363215866685
97.7384845799423
97.7374216851027
97.7093785864012
97.5833076528445
97.5252403306042
97.5417794955887
97.5163673156108
97.4632204775613
97.4148254890998
97.3993303129184
97.444344789542
97.3723857799157
97.3151457684117
97.31036859215
97.3192955080569
97.2530671997062
97.2366643003317
97.2760371648589
97.3402257175101
97.3684605229523
97.3260548660716
97.2746713931415
97.3107867507871
97.3173825600662
97.2922069328685
97.281203358474
97.335076201909
97.3809775134957
97.396809217113
97.3920843087921
97.4070840555818
97.3240136441931
97.3459865689803
97.4123865756739
97.4640906064732
97.4559848473913
97.470142921667
97.4556807904214
97.4697919379183
97.4602602647097
97.4707996662358
97.4688964182935
97.4019515079898
97.3744037999866
97.3033915385187
97.2549332184414
97.2508166373215
97.1837141091358
97.0879690615476
97.0078683537093
96.8573686021481
96.6802741920039
96.5415860352441
96.2168821786503
95.6193365760312
94.7580535415019
93.7464773048659
92.4248737520468
90.9784114432437
89.2562021245508
87.2536518510832
85.8490050645396
84.3070882900327
82.1108550177067
80.3342151138571
78.6370227243685
77.0463875642781
75.565890853276
73.9837944185535
72.4816196326191
71.2523283589429
69.7920346925199
68.1018348924134
66.936734765457
66.3827627058153
66.3693802867453
66.7006420729197
67.3928284477742
68.5002178773665
69.3320121601174
70.3712831043457
72.5891879570625
73.6660152988882
75.2636165540018
76.891930423565
77.537337323677
78.2672134639284
79.0658393082438
79.1566476300467
79.6949024963469
81.5400378380492
82.1347203057563
82.403505127507
82.4715884505468
83.2399403448287
84.2949106328769
84.4291086917131
85.0208726602078
86.2402583161578
86.6016529611485
86.533190881772
87.2605466614181
88.1262924905218
88.3893020585621
88.2199263498181
87.4647331504419
88.7718438016014
90.5542053510227
90.0853252675658
89.6350587151534
90.5613521946242
91.0079021095537
90.8989162123632
90.8105439088766
90.5867015520229
90.6675895515392
91.738997484231
92.0552729743629
91.8018723798091
91.7017036966601
91.9612339170924
92.0401734276083
92.2264391987786
92.5925879790848
92.3917898679928
91.9845221651505
92.2113654475194
92.3894804997776
92.2363720458285
92.2334658310424
92.4757958347067
92.8022385383575
93.0087222360194
93.1962805510129
93.4248619007179
93.6276088471797
93.7221615729666
93.8638766793847
93.9967179688678
94.0511984203286
94.0426205041838
94.0138810993567
93.8365992421833
93.5134377140165
93.0064900647481
92.4605403506157
91.9472262535695
91.9354671010636
92.8098191174652
93.2361938687905
93.2474417755545
93.6862222591741
94.1962072470926
94.3342289171299
94.4354520651432
94.2476598603213
93.8927512121954
94.8348828336107
95.2331702866617
95.1020758475155
95.0940648186826
95.0679379507428
95.1983661082458
95.2000404809973
95.1431582402028
95.1394763938853
95.1630574554396
95.5312730056363
95.7781998060321
95.582258250827
95.3154786999643
95.4233026958313
95.4421620003644
95.3282691557875
95.2854364665427
95.3092845527025
95.2143824612229
95.4727742565269
95.6450262119521
95.5862438245184
95.6977655710414
95.5570730035167
95.1052268014023
94.3745954387794
92.91061141356
91.5176287051624
91.6724075087097
92.3684707888844
93.27286384342
94.2273432564755
95.1019939365216
95.6384669345103
95.7413946993557
95.638164995437
95.6481153695034
95.6260112030784
95.4635684508522
95.169179424412
94.8221939271067
94.5257052173615
94.1578598145958
93.7177883733208
93.159501005981
92.5629334102731
92.5518093099082
92.7753660116453
92.9838787800693
93.1671735243238
93.254232643385
93.05212411716
92.720013539714
92.4447978278623
92.5570452241914
92.4927250716657
92.4251036216434
92.4400489285338
92.5912784062174
92.8328366825409
92.9495617807723
93.0149871628022
93.1079892754979
93.1638018446186
93.4170077894682
93.9454725877539
94.2997843972348
94.6021367199243
94.9322564920051
95.2497745558412
95.3759251663583
95.3752022745695
95.3265718589183
94.9546161438575
93.9458500886808
92.3799199020554
90.1852070485487
87.5503923849478
85.137749099761
83.897633128116
83.9862257084598
85.3334623641015
87.1368029957287
88.4996285777028
89.6765289221062
90.7531932115573
91.4022619377936
91.965488464466
92.3007498118266
92.3968906364351
92.4234253446406
92.5151450718677
92.5872619487987
92.6065021558234
92.6512048225748
92.6658251775413
92.6320503268657
92.4771838315884
92.2871614300661
92.1616786064783
92.1355424865908
92.3546413537758
92.7722888201413
93.2357868116014
93.7496391127651
94.1392919701486
94.3098431400805
94.3394033640686
94.234905786097
93.9240005153492
93.2922511372568
92.1821622719887
90.4679437712711
88.1093181196652
85.5135801762503
83.4124977767088
82.4494313068607
83.1027676502624
84.9975920586187
87.4175265633841
89.7566440805906
91.6032251102086
92.7936292072007
93.4519572550221
93.7481066978944
93.8063884409611
93.6917800574152
93.5031582493147
93.2767105703242
92.9877746660703
92.6494831557878
92.2624567151336
91.8525112335144
91.426403625129
91.012710802601
90.5973471178721
90.1105876762507
89.4940114089713
88.7380765948756
87.8508819972632
86.8989690297508
85.9589772340162
85.046008278129
84.1507546406577
83.2707322204821
82.398770197289
81.5226189735253
80.6654318575287
79.8012154804488
78.9100623977473
78.0315729715146
77.1915945886361
76.3550522357958
75.4694531167325
74.5489390810225
73.615890926994
72.676115244609
71.8084178483142
71.0552995305211
70.4261859857348
69.8923811990579
69.4080426425893
68.9373933299542
68.4513674844388
67.9091594708554
67.3477079321658
66.8042008237101
66.2937856884253
65.8481825477094
65.5146575041411
65.3244203039052
65.3316852342882
65.5189504849201
65.8698228469702
66.3479721508685
66.9088897819875
67.5048690396743
68.109231148413
68.6982106885651
69.3053491906058
70.0109708254241
70.8375117735486
71.7477692854909
72.6919548670997
73.6345575508076
74.5597522220717
75.4342754143459
76.2964238955374
77.1711036171826
78.041959091313
78.9050371889854
79.7694197971007
80.6450334801758
81.5196070054932
82.3619192247086
83.1576675902183
83.8726002799589
84.5086784991208
85.074998120894
85.540647108728
85.8646097435528
86.0426715202491
86.0967620526399
86.0952337566143
86.1333373447875
86.3137600528573
86.7018915464457
87.3335480682816
88.0890500072028
88.7879993429844
89.3071308400369
89.6555866703785
89.898122400664
90.0384954105286
90.0602560102058
89.9696562625918
89.7708852910893
89.4627124759408
89.0395167341088
88.5245463746613
87.9164822077525
87.1552155117002
86.2179104056866
85.105237012105
83.7871342111122
82.249054133812
80.5355979955812
78.792804621181
77.1795151728701
75.7921258107121
74.6391032282504
73.684624344194
72.8900554507869
72.2243594561373
71.7027741523161
71.4040625393398
71.3545479110128
71.4332110073988
71.4761838607056
71.3876624405826
71.1043092931687
70.5869707840336
69.8710094514426
69.0943240909093
68.371228007073
67.7343791439766
67.1779208494502
66.756711685827
66.5117933105577
66.4007584754772
66.3792490567942
66.4055272966138
66.4871655674834
66.6362229022726
66.866481084015
67.2231830678755
67.7165590732438
68.3456146517995
69.0741498292531
69.8733426918709
70.7032075208133
71.5386169033928
72.3654882423218
73.1659348316747
73.9214736296413
74.6276081876122
75.3052692910505
75.9130825092527
76.4048053831941
76.7873013855097
77.0529882297371
77.2109375479263
77.2892141332463
77.3050008845762
77.3250669722418
77.390040382102
77.5539721602562
77.8328834002878
78.1947035613394
78.6317458101735
79.14942152052
79.7712276878522
80.3995687049316
80.6550465272859
79.8002879427356
77.6347100651273
75.1966525531957
73.2043678785934
71.3812456854216
69.9361510942896
69.6003034692649
70.5838904628074
72.2382323717222
73.8433842536513
75.1676369060334
76.2546044995196
77.1078034181466
77.7962697441995
78.4049100401372
78.9500720836574
79.4230679737146
79.8112276637316
80.1140565452062
80.3438373350641
80.5057590921135
80.6698710615822
80.8659454513928
81.0339916587206
81.1011562105867
80.9697507583847
80.6082992828367
80.0693700788063
79.4249277997375
78.8280635337484
78.4824587446237
78.4604058400765
78.7297607478375
79.1672850886493
79.6408964941857
80.1330954895441
80.5932169567713
81.0454376956481
81.4731392162898
81.8493289330073
82.1891577605978
82.5124927201399
82.7832845022166
83.0407142826379
83.2982099392131
83.5111905179479
83.6858158313988
83.8781888087047
84.0541523969505
84.2270414289011
84.4284425694944
84.5971539636054
84.7318100257866
84.8735780535899
85.0672916467995
85.272978530244
85.4573815144443
85.6243198365003
85.7635985376084
85.8737708972963
85.9557718343768
85.9943314539943
85.9558956913822
85.8902301504094
85.7707488709964
85.5163284366582
85.2440136567231
85.012752128981
84.8582746761571
84.8278321333817
84.8645141479615
84.9576899511413
85.0854832841894
85.2000515807443
85.3002483309646
85.3447099046476
85.1925294038896
84.8118161794299
84.1814126204522
83.2579653360817
82.1295846910972
80.6081491153402
78.2992218131704
75.9965453451002
75.6440276309268
77.1459542233034
78.7857957596018
79.932271324371
80.6801964246058
81.1479086261624
81.4131514739101
81.5416172762805
81.5303521167276
81.4072457255092
81.1747753421021
80.748762877927
80.2927345807355
80.0764656991266
80.1853243218251
80.5660012987955
81.0100790689602
81.4388956921741
81.8761513420821
82.2913825427218
82.7284538531714
83.147409002473
83.5013845091188
83.8192443609497
84.1231368528024
84.3766524746914
84.6206779157328
84.8532482413577
85.0629036544348
85.1712933783302
85.2781269240434
85.4170294301624
85.5723334464064
85.6714569985649
85.6987324473569
85.7552072365747
85.8971116887716
86.1406526994956
86.2719983667319
86.0638237073948
85.3016369385273
84.3217216026073
83.9505358866958
84.2617991698086
84.8869723190575
85.6096291870502
86.1988824828354
86.6548256300039
87.1284350090794
87.5592760116952
87.9328513584597
88.3244825192852
88.7342581342523
89.0632649917387
89.4086485742413
89.8577698417394
90.236292526492
90.535989978157
90.8770524692669
91.2259989731562
91.6017160500446
91.9213593643577
92.2367941527664
92.5888568129818
92.8884235017201
93.1640170441925
93.2867219777025
93.2304407113054
92.8144156985269
91.7568727383751
89.7480408717172
86.8872870844514
83.6809558737151
80.3807648691332
77.0763683804189
73.7481998208513
70.4627833580469
67.1988892387819
64.3452025589325
62.6956911893005
62.3813509063956
62.858392623209
63.6652377236647
64.7371063095216
65.9177025666796
67.0003513729795
67.9015219345038
68.6575979800826
69.2541607166351
69.9433609221627
70.7374173890348
71.7846021672351
72.8853699985738
73.8710484766158
74.8052071690811
75.6003919686182
76.1843113579869
76.7049983591643
77.1244393063355
77.4461081299253
77.8248647736199
78.1296446665563
78.1049676683486
78.193201660848
78.7341323367532
79.2215369441566
79.4537129929135
79.7350453614449
80.3100815297047
80.8003246806159
80.8715211827617
81.1620944396392
81.4260450237096
81.33743112683
81.6991228868906
81.986683275684
81.8681805280313
81.7948360760964
82.05242661756
