1798
3999.43349933624
650.420452594757
1
128
4
96.0503683330028
96.003140454647
95.9767537115281
95.9779354661721
96.0213023322931
96.019759107424
96.0886802634269
96.1172712528144
96.0200233837244
95.9754199507894
96.0486404104524
96.0123351295362
96.0239494960245
96.0182792656525
96.0487481185946
96.101512413208
96.1083233894198
96.0531489041165
95.9837982733103
95.9420047355785
95.9612850373339
95.9048260677505
95.9759614546433
96.0251411086507
95.9562189802512
95.8973473668285
95.9969954410297
96.0224652446096
95.9556176651704
95.9781465672683
96.0824872922005
96.1704171389114
96.1576193010624
95.9920694895506
95.8572962276912
95.8413773211457
96.0408696924199
96.0754981466413
96.0348227305856
95.9504695618221
95.9492989239841
95.9679856031554
95.8470253212651
95.9330267419749
96.1185674069439
96.1510679918703
96.1228063642258
96.0443042957647
95.8732478349675
95.5788606432573
95.3771136622849
95.4620393826486
95.7681947276447
96.1223365848113
96.3899671820934
96.2700967767315
95.9555273205479
95.9877140216158
96.0063347302602
95.8254253399357
95.862032546864
95.9647341221558
95.9697684842515
96.045034637375
96.1379262896351
96.0551179558854
95.9694167792055
95.586524698915
95.6671051015132
95.8116742985034
95.9549620777564
95.9865394355422
96.0534919151752
96.1409423844217
96.1638115765174
95.984116697263
95.3575675658273
95.0523147081346
95.6883775313192
96.4002210619201
96.5364312440148
96.3103175548651
95.9868919228052
95.7070878594214
95.4434809827635
95.4109491325576
95.7314657018336
96.0040609733593
96.1019065070048
96.2574723610218
96.1142137878905
95.9814027040419
95.9738613885477
95.6477183281101
95.4664082974846
95.7969554466902
95.8947824633048
96.0683023975955
96.2605453406581
96.5309255039866
96.4152586192703
95.9953499173257
95.8172540614077
95.7701489852516
95.5494227420938
95.5887882100544
95.84405033563
96.1141577377339
96.20721603484
96.2337086987632
96.1709995739091
96.075311519544
96.0092547672515
95.9459472871278
95.9725784593616
95.9182191684465
95.8656592763599
95.9346439520401
96.0650806172148
96.2518467989725
96.1343885094356
95.9376568508624
95.9059073432318
95.7949718753043
95.8608519980654
95.9614719622054
95.9030267180289
95.8084170249614
95.7967003219522
95.9348987709276
95.8116960997881
95.5175831736014
95.3423888121261
95.9023336834093
95.7610976260861
95.6675789051182
96.0044646804844
96.299300174651
96.301652366267
96.0074025266421
95.7897691461247
95.5779074905467
96.0256631369942
96.3922257530884
96.3591044434636
96.1028149677425
95.8777018593793
95.7876634955309
95.7759802075144
95.9645471889426
96.2063109839128
96.0893972916318
95.8504809483084
95.6543734656659
95.776712385544
96.0747639474164
96.3554583488749
96.2835661035603
96.1088682331629
96.0594875589981
96.048005386149
96.076449146992
96.0972198619025
95.9738115030932
95.6870036390852
95.4512041780385
95.7867596748783
96.1663953491114
96.3580216739176
96.2078719105467
96.1586885099562
95.698939729226
95.235997432122
95.3045001024371
95.7231633315877
95.8907396907524
95.8764808067533
96.2210726888244
96.3538557351998
96.1786653013485
96.0378055546829
95.8701740587878
95.5752880698045
95.5311085875107
95.549419073018
95.4167118850339
95.1992958612453
95.1405100086381
95.5558945745354
95.9926739037659
96.1760974033065
96.0099762354025
95.8453426523531
95.6912807619462
95.5357841414413
95.5411063174501
95.3222192979663
95.0321466802632
95.1329681057008
95.7756105192219
96.0646346885627
95.8215242385431
95.544760812729
95.491537378716
95.6819994972838
95.6409946057506
95.5099682154015
95.4936437799441
95.5746193084177
95.6251908119194
95.7813988784148
95.8952891202815
95.9057641624822
95.861392367582
95.7730314836761
95.6106149057874
95.7061191406343
96.0044603549731
95.9643041626481
95.6747911186964
95.6748841977169
95.9648096678593
96.0289981768318
95.9473846578926
96.0427108874829
96.0013140549488
95.7834687620474
95.6834814927082
95.8744806974436
95.8481914502582
95.4857875355429
95.2028292505827
95.5031999708431
95.9204366389324
96.0422080351287
95.9220622708261
95.9126352955657
95.822382325354
95.7517795688294
95.802916840542
95.9062991241141
95.7358435121984
95.5836658956544
95.8020822582342
95.9883604581123
95.986547584491
95.9469627742778
95.8831349109111
95.9218683346582
95.940897985945
95.7996211261238
95.6922520488731
95.7870085255694
95.8264809331286
95.8512368973431
95.9634332348257
96.0664004059654
96.0478675924202
96.004680405671
95.9212343271595
95.9053229507627
95.8550130344904
95.8448825719115
95.8622086800589
95.9051970170898
95.9913044373132
96.1066382827011
96.1249069480087
96.0584972951347
95.9559114995164
95.9922941498285
96.1017249895053
96.1819190504286
96.1236535130561
96.0475410641373
96.0432811357657
96.1840923922324
96.2093590231495
96.1416980981387
96.1526011335424
96.2590039193186
96.1173494238972
95.998033495839
96.0275149165237
96.0097719617437
96.0175460636665
96.097942731264
96.0560754131222
96.0845969009754
96.2012955049511
96.1964798000031
96.0414230795524
95.9258925406654
95.8802141268503
95.8183484403124
95.7841214279245
95.8349625983879
95.8314083633942
95.7473863059084
95.6399947726739
95.5433481986114
95.4891808938785
95.5647503857015
95.6535578795612
95.646490649006
95.5822333823672
95.5612109780707
95.5808979500074
95.5843487855982
95.5197163669524
95.5636819790297
95.6317378594705
95.6529499796639
95.6342301710552
95.6949876067468
95.7677485382286
95.8144669897349
95.8511499236458
95.8037580497261
95.6385787647006
95.6869855583589
95.8863661308098
96.0075348851745
95.9807675946944
95.9698464673324
95.9993329384458
96.0577998851604
96.0773803458217
96.0998878340012
96.0025164782754
95.9694854913793
96.0293550358505
96.0029277078241
95.9102961708704
95.8624480158405
95.8921225527334
95.958506034286
95.9507379199941
96.0262118172822
96.1322993191417
96.1595895443937
96.1082552743662
96.1124027368656
96.1142500846941
96.0456361128556
95.9886929547216
96.0344693633283
95.9863189427064
95.9356094638386
95.991528267405
95.9743054309922
95.9548949054922
96.0534798121379
96.0340084200653
95.9575110647912
95.9460052253128
95.9705017839153
95.905665958322
95.8755956037154
95.8970470396871
95.9161991369035
95.9196562063499
95.9921252625308
96.0300804536507
95.9546505400011
95.9055833171878
95.9722593502403
96.0077483997608
95.9991226070421
95.9492491203632
95.907951383449
95.8960254620913
95.9208422835544
95.9719883278998
95.9809364420454
95.9095985609154
95.8865584400791
95.899363343451
95.9215519425799
95.8968518192337
95.8813937319647
95.86689750407
95.9312585336623
96.0105755917686
96.0033641715618
95.9828895499977
95.9583802435709
95.8978191534604
95.9265628053384
95.942307335436
95.9159344796063
95.8987309041434
95.882460510779
95.83537393463
95.8810272166178
95.9671152413077
95.9851026509519
95.9127269900728
95.9175499798654
95.9414899682492
95.9637856414495
96.0290067574059
95.9905167208446
95.9107224815078
95.9206703273052
95.9563345579058
95.9525190256367
95.9271338861925
95.9530835824463
96.0184255679677
96.0466215255252
95.9807328923894
95.8924948320946
95.8583802095722
95.8953935002564
95.8724289697844
95.9273358682433
95.9874525838326
95.9309059599212
95.9097712327628
95.899460326866
95.8528430001993
95.9458796628265
95.9974969615044
95.9560019687441
95.9507680563637
95.9779685627022
95.9218155288662
95.8779406964747
95.8838475635781
95.9245668770077
95.9160337219993
95.8882323597323
95.9049612182014
95.8912204612989
95.8876938800339
95.9175473717255
95.945330741486
95.9396031168856
95.8745453890317
95.8800484214833
95.9124899816683
95.9127157845561
95.85166437093
95.8730588872249
95.9604123989681
96.0468743939921
96.0098785766271
95.9104450440581
95.9063784607355
95.9573676386916
95.9624764134266
95.9534370610617
95.9645883082294
95.94516659215
95.9191396094148
95.9378277527198
95.8987189074299
95.879504863108
95.8916555257517
95.8577608467142
95.8524868019475
95.8635819825893
95.8298797197915
95.7960029598648
95.713565843807
95.6782188696398
95.695047886707
95.7224095228815
95.7056855570231
95.7377535301697
95.7819227773538
95.6944651659059
95.5950700327859
95.5950778655377
95.6571484399971
95.6816311498583
95.578200228231
95.4524707708806
95.4168055042634
95.4821878529047
95.5048856350407
95.4768951947203
95.5123415967112
95.5820068969548
95.6311430144562
95.650519267532
95.5999838426154
95.5742618716682
95.5180169085056
95.4161253759274
95.324084276925
95.305662903832
95.3745878862786
95.3897671375245
95.3448165080774
95.3634015402604
95.3670762393403
95.3416594248444
95.3411977972091
95.3866539786609
95.3602009653396
95.310310036314
95.2685139845898
95.2631643337554
95.2971719337733
95.3088892541126
95.2973262194043
95.3125841920316
95.36104497148
95.4265175895314
95.468914314945
95.4777627054268
95.4947367656121
95.5614359147293
95.6209902869332
95.690738234396
95.6544668216638
95.596360439109
95.6373354907083
95.675940330581
95.6299798684987
95.5809749084539
95.5877339265507
95.5392145480441
95.4476847106389
95.3803063191467
95.2774162132238
95.1494260331276
95.0782322506869
95.0791984266849
95.0244522317996
94.9893665905017
94.9621993366492
94.9471623920337
94.9719992781651
94.9333053297426
94.8465852573189
94.7923118761395
94.7688850081317
94.7675711628989
94.6958087151625
94.6064856265595
94.5245536056032
94.4413597635534
94.3243401485193
94.1621001587858
94.018284609132
93.8791713226096
93.7254913854383
93.566323627327
93.3938061918218
93.2434778302538
93.1647583767929
93.1765825309772
93.1785427284129
93.1580378222629
93.2065728835665
93.3076213647075
93.381577100427
93.4986564900523
93.663465423025
93.7594994649316
93.8201672821926
93.9647590019308
94.1372713908839
94.3058319747557
94.4455988925831
94.5586083108423
94.6621694532908
94.7645024272649
94.815418906766
94.8436156400214
94.9031781391236
94.989261130539
94.9920564196952
94.9443191240978
94.9375460613518
94.9277550880797
94.8984878897334
94.8573544564276
94.7869722617827
94.6906572243041
94.5762977107018
94.5071928278742
94.4268543284879
94.3548195265913
94.3349544549326
94.3871134510598
94.5131073918548
94.618938928314
94.6400163619051
94.6391305542552
94.6325874432321
94.6603416471582
94.6971502479112
94.7183220837944
94.7628373265285
94.7980931524017
94.7790187773389
94.7745528574034
94.7857186331289
94.810063645153
94.8807001324395
94.9512016753129
94.9536324459543
94.9451992993709
94.9722214606736
95.0094903695198
95.0235357418869
95.0402971783694
95.0239095576487
95.0204904045066
95.0373749742234
95.00468092956
94.9866513708889
95.0755189697842
95.1224023188859
95.130922595136
95.210913836915
95.2751098658316
95.2855000734386
95.2959450145681
95.2780114020233
95.2781723806921
95.3562671036055
95.4226485241491
95.437333552568
95.4393896239658
95.4249148271111
95.444649576709
95.4683946012525
95.4667386447458
95.4421821130648
95.4413132780124
95.4530178292408
95.4711612448583
95.4540846659558
95.4079149311684
95.4166556429272
95.4413736222864
95.4349119980359
95.4482268021455
95.4533648474494
95.4450872546698
95.430597231853
95.4348242482691
95.4602630064464
95.4468346487259
95.4098727310948
95.4735524455283
95.529562094421
95.5099989094302
95.5187134695718
95.5472364259718
95.5644709575054
95.5869620283287
95.6038777848417
95.6097179225433
95.5713838948946
95.5318575231407
95.5252834825148
95.5614786316487
95.5936227472031
95.5985631929517
95.5995884862123
95.6091375918574
95.6444497917307
95.6492806022862
95.5883884007089
95.5525389172028
95.5745446307611
95.5983188015946
95.595340755812
95.577587435478
95.558780768358
95.5956965581088
95.6073461005502
95.5871493340642
95.6123166163808
95.6677852190826
95.6537778582209
95.6216893046902
95.6413565280431
95.656289043078
95.6591443383056
95.6759944718333
95.6646298551764
95.6389637803131
95.6446653584557
95.6852111348918
95.7138122905087
95.7170319868316
95.7148451288044
95.7153026543268
95.6833237011342
95.6707832126638
95.7041995931302
95.7257884552567
95.7125752826894
95.7218125246044
95.7135093578632
95.7106464273796
95.7565669656093
95.7591345568444
95.7136724899951
95.6994412942501
95.691058414354
95.6983314496662
95.7407088476259
95.772146754664
95.7735841921373
95.7819457890145
95.7838104035774
95.7630592131188
95.7224780905326
95.6722791192256
95.6297946774464
95.6261608778194
95.6374377842986
95.6350276062988
95.6264378307692
95.6191350197338
95.6352948825648
95.6475633449657
95.6013757597948
95.6105906922353
95.6787307167485
95.7038774408711
95.6719355295948
95.6418330799828
95.6092915572222
95.6188776818635
95.6437723561467
95.6535710676972
95.7051272303534
95.7397175403564
95.7078096545403
95.6838598387557
95.6779332638013
95.6579268344223
95.6657965443796
95.7474304507876
95.8049006849958
95.7990820405197
95.7666373302082
95.7693845541235
95.7698642945076
95.7608319609672
95.7800514179723
95.8369771021787
95.8709740712586
95.868583686926
95.8892744751893
95.9063726388052
95.873026722164
95.8607315560233
95.8291731176463
95.8199601436818
95.8278772249244
95.8181275337361
95.8161148323104
95.8354656802927
95.8618167424974
95.8881492094284
95.9433466934692
95.9400541858937
95.9048503282887
95.9033350892558
95.8731055066341
95.899496326658
95.9585581590551
95.9691872490709
95.9544345377423
95.9473780587294
95.9292475663819
95.9378711236655
95.9750666930816
96.016997679667
96.0550328493184
96.0187908528101
95.8852494782925
95.8904731475111
95.9676232482073
95.9302159897904
95.9483464635906
96.031661662186
96.0110214320163
95.9644786440775
95.9590681445188
95.964001146518
95.9437762406538
95.923321311144
95.959042103209
96.0245412949909
95.989432010498
95.9143980841653
95.9535955211749
96.0627598932899
96.0871587150649
96.1309374182707
96.1686363121244
96.0617811818318
95.9924313819341
96.0635200139792
96.1305035735805
96.0827405463762
96.0238093488117
96.0070272431709
96.0237006905503
96.1687683530488
96.1819779447069
96.0807394730382
96.1090082115698
96.1494312636234
96.1082805560893
96.0513370562869
96.0829273190418
96.1741193381148
96.1539804216754
96.0901622887807
96.0996474375539
96.1346242230027
96.1235960870261
96.1523153772833
96.2088254603341
96.2155289830444
96.141081293691
96.0644651123075
96.0781701768587
96.1134757851799
96.1044971864544
96.1185164710946
96.1313063233203
96.0934048164078
96.1291596978953
96.2064338453311
96.2027708383087
96.1475251382516
96.0795242835326
96.1048207028319
96.1804267687478
96.2349656294979
96.2245268095148
96.1556717435125
96.0800547582841
96.0329181594252
96.061519062952
96.0760834446953
96.0650373309373
96.113310540047
96.1235478192117
96.0407888011086
96.021756085208
96.0551224321888
96.0244225163889
96.0329527677011
96.0983670797876
96.0799434337545
96.0293121006006
96.0717959265339
96.0603411773914
95.9688951159699
95.9381587684473
95.9797206715086
96.0083223273606
95.9471850168153
95.901011312612
95.8883223041293
95.9171894330998
95.9547099966418
95.9079395227848
95.9381096622446
96.0444080061961
95.9845070620966
95.946144392353
96.1620334109123
96.1375427595143
96.0878416066029
96.1263366647269
96.0744513411408
96.1125514660373
96.1603646138849
96.1688079677767
96.1650421026204
96.0847458020494
95.9123544149779
95.826786481617
95.8463267063305
95.91355272722
96.0007002515818
96.0622172489696
96.1733659100913
96.2116875563156
96.0659358974601
96.0289007272655
96.1561341503616
96.0979964997579
95.911668305619
95.7264465939103
95.7312688495282
95.8307855162341
95.9400981105558
96.0090371345793
96.0503501401878
96.0775039226971
96.0772570419948
96.0846405990651
96.1088826611444
96.0897340645793
96.0003006556699
95.9797748741692
96.1010065165678
96.1655482534242
96.1144175110851
96.0193113816701
95.9800046223337
95.9864941094992
96.0235560540344
96.0769841412362
96.0950140639326
96.1436490870346
96.2475138654259
96.2350738589093
96.2590403410527
96.3277090887927
96.4045666091545
96.5009971256633
96.4623218428794
96.4419333401014
96.5293234717245
96.6406477347091
96.675847591569
96.6114942245205
96.5416505813749
96.6357449657193
96.8320331639229
96.7250138535166
96.5789174879587
96.6684113262854
96.657684013382
96.6570232914969
96.8040533941603
96.6478605909746
96.5622001946873
96.7549507776056
96.8914159941626
96.8889219856957
96.8928954031897
96.9646724770186
96.9979794937969
96.9749696848884
97.1318659660234
97.2963162556513
97.2066903170753
97.1632076369028
97.1188339965639
97.1488542700942
97.3726361647779
97.3820197936372
97.3162626214868
97.3333072915538
97.2997414741106
97.3496689147559
97.3303573098319
97.2855387295356
97.3658755227547
97.4629932118981
97.6317155782608
97.75038661989
97.7143180342372
97.5599674364014
97.5204518840305
97.4886467356332
97.5478811348397
97.8323056335733
98.0042067699045
97.9518498295048
97.7521085772599
97.5225474477259
97.5790410925913
97.6768322994182
97.5869847272797
97.5784037970085
97.8656138357403
97.9337363882989
97.7159559987001
97.8648200357742
98.2267564232537
98.1930946073308
98.0195574855289
98.1270468208078
98.0605165030561
97.7173536890817
97.5766662162794
97.5708006277353
97.6735034501964
97.7395062693176
97.5355675545179
97.3010453119667
97.3595830978908
97.4287371231454
97.311336809176
97.261447764691
97.2794317750488
97.1789067689176
97.0348503256624
96.9237829474503
96.8608452044667
96.7696116848846
96.6718994785165
96.5786825910388
96.5286991256808
96.5554956722122
96.6130524168342
96.7692896110699
96.8280920036543
96.7295222681911
96.6366808690504
96.5814218590407
96.7409550758583
96.9538037973543
96.9528141837775
96.8466764634057
96.7868658194152
96.7828788957627
96.7799600740042
96.8698637399408
96.9855934037457
97.0113556171016
96.936796383983
96.921704101701
96.8550316215112
96.8734437607666
97.1498988725615
97.2410375922369
97.1556844857106
97.096135105703
97.1199834428623
97.2335847451172
97.2079296205496
97.1669035463982
97.3337775097439
97.4917806622679
97.5033960894147
97.6498725772463
97.9207288288149
97.928094456616
97.8731317363987
98.0643002758473
98.1719586534592
98.0989371021991
97.9090328630206
98.0556504239895
98.3033916554487
98.453619734848
98.3036908043607
98.000560182118
97.8239761309818
97.8148302801218
97.917296263603
98.031392497319
98.2108518239312
98.4773175307556
98.4257231878894
98.2691218037054
98.1146359073765
98.2023722758915
98.2721070486674
98.0077080301844
97.724925294741
97.6971553391527
97.7773514818106
97.7007016458221
97.6945817960521
97.7861274298836
97.7562293891434
97.7871783072891
97.9017881003092
97.8758979237588
97.7589730761641
97.7303412484614
97.7041109639497
97.7544602466675
98.0342095133378
98.1743711896142
97.9739646771328
98.1721853339862
98.4350101482007
98.2281835712702
97.8719501515163
97.8199330283914
97.8331626926427
97.57728524373
97.5084739621411
97.5881201287551
97.475619148525
97.1955348434794
97.1773062797221
97.2885190562327
97.3019837006613
97.2364505795802
97.0866618540889
97.0271396442211
97.1327149509802
97.2575665878163
97.2683140933874
97.1691756786874
97.1701597377272
97.2552584158029
97.3282080815248
97.4150473833965
97.3883607489719
97.3237638043259
97.2858514201881
97.2914113669786
97.0941703626923
97.1006160948661
97.3983931174086
97.5399548871346
97.4897879148622
97.3690019475662
97.3810181654085
97.437309521164
97.4636919245828
97.4592565951729
97.4224790639793
97.4632763608366
97.4737576325294
97.5053695454322
97.5716537660877
97.5789539391713
97.5503312414511
97.5427272257231
97.489069056137
97.601191700838
97.6704879262387
97.658767653098
97.5812337714271
97.5179210971884
97.5436901793324
97.5999000954967
97.5297565273349
97.5432537726028
97.582333481171
97.570514092774
97.5789111732371
97.5456713520502
97.5287140081968
97.5316776106306
97.5271214750015
97.5123175725143
97.4754241948535
97.4180338873368
97.2879484714444
97.2747063863914
97.232173209226
97.371643514294
97.3822679191661
97.3013008239645
97.2277769874716
97.2114160836595
97.208821269138
97.0906283307804
96.9422398847498
97.0661452382342
96.9684790472051
97.0592832230485
97.0842008031181
97.0459832821276
97.0659276652649
97.1278615678457
97.1378120236704
97.0806646691029
97.0148085334159
97.0838849651735
97.1089301629533
97.0886663755382
97.0019059867446
96.9213639706905
97.0089867227733
97.1681599363189
97.1584075157229
97.0967977311141
96.9631824603408
97.1368989793261
97.2288963858885
97.2305286373063
97.1830513569604
97.2494691611708
97.1394042453358
97.183044352007
97.2142594794844
97.1837461518071
97.070086283969
96.9812171263208
97.1787285993112
97.1501732877786
97.1979652756165
97.1312244868971
96.9910139788551
96.9717984916562
96.8848358108225
96.621209454007
96.5064126567514
96.1831797685791
95.6771618419741
95.1259844857718
94.2760819990438
93.2600326864355
91.8129246003422
90.1815518487873
88.2083512721012
86.0080694567073
84.3140100408257
82.2633590019357
80.1574090892798
78.2543179396559
76.3334292265245
74.5154507072012
72.7481282676922
70.8362585321438
69.0211638875133
67.3024030133415
65.4859434109697
64.0055314151868
62.8988431980495
62.2918433578632
62.1166070837547
62.2847428895431
62.9189617022165
64.3045932566473
65.2663019289962
66.0515942364363
68.9965271906951
70.4040725115956
72.2150176201753
74.3373783299176
74.8122375044117
75.4520352907888
76.2337921753955
76.0840047837122
76.4589845796123
79.2257494047046
79.9392348544446
80.2366238751133
80.1406802898157
80.8917880504174
82.1692898136938
82.1421536947797
82.7957473554097
84.4638439416567
84.8799746391893
84.6143126851439
85.4358746109073
86.5360373848097
86.7524179994258
86.2730097365492
84.8195746815555
86.6405470093608
89.3383251271876
88.5797888695082
87.838825060149
89.1730242159827
89.8212346345773
89.5855680710088
89.2793398292755
88.7169828963605
88.6976718075184
90.4851481203477
90.9723823503364
90.5703736900431
90.3226050334339
90.602630305863
90.5495049583844
90.8082111947991
91.4215476858299
91.0489700072491
90.4904420405911
91.1060151703548
91.3915607634476
91.0851170656355
91.0659292222095
91.3157540638323
91.7028567475628
91.8861727483911
92.1155997350071
92.3879255942083
92.639112765069
92.7483772238143
92.8827940243273
93.0072340413784
93.0976019537791
93.1027009441797
93.109052297098
92.9420195773473
92.6028797921042
92.0378528918146
91.4473888549559
90.64385867494
90.5557904021401
91.8692314001064
92.2531154609061
92.0111977428282
92.6231737582639
93.3112938572607
93.34790871968
93.4397593361555
92.8236781261134
91.8149169954911
93.7207620118358
94.5307599651348
94.3753055459055
94.3692277451248
94.1094175458308
94.3181554279882
94.1553285334093
93.8869528251064
93.7943266996585
93.6736242777318
94.584494582627
95.2216770415592
94.7562807139857
94.3562345868644
94.7794415843466
94.6998687963635
94.3005646359352
94.1406757420505
94.284723126703
94.0014213664361
94.3668098007184
94.6573134703686
94.6127790394362
94.9586065070819
94.7669208927268
94.1723677852298
93.0575672919383
91.2252127316971
90.4499497604096
90.8403795994045
91.3686599870576
92.1433364136311
93.0560523728272
94.1378715390573
94.9636819054995
95.0007048362051
94.6935913682256
94.8486251929421
95.0151349837657
94.934522108342
94.5246024307711
94.0771284504769
93.7843459017766
93.2621439610981
92.6353430586025
91.8774835460174
91.4382027159893
91.7838444902363
91.9399465452726
92.0175957069778
92.1917511282181
92.4604565502491
92.0484001541644
91.3822849595532
91.129872354523
91.776180504597
91.6950816250678
91.5990717290403
91.5227384189793
91.6501957405046
92.0058201852357
92.1431618812891
92.2188659298338
92.3023470503574
92.1406288883656
92.3470718402243
93.2528427426783
93.6010857725599
93.8737617525817
94.3278741681306
94.7443584004218
94.7746627245602
94.7689353954777
94.6699434884777
94.0712234438847
93.2303151673459
91.6734747048892
89.2028905750435
86.1966778671425
83.4529338248742
82.0075313782015
81.9706724788683
83.4190271722947
85.5448464836087
86.9955032092813
88.144387796709
89.4384649536627
90.1816120525459
90.9670170450826
91.4510006082206
91.4908939486783
91.3985237021011
91.5600335483159
91.7577460225335
91.7829838861693
91.8169910644031
91.763608458565
91.6704851918773
91.426827159308
91.3354377178807
91.2731131845687
91.1892285641489
91.4617216404493
91.9309142775341
92.2756651956649
92.8569371724425
93.4540010369137
93.7233251044997
93.7550606510285
93.6080854826368
93.2896396232198
92.6423133964334
91.444883771443
89.5731228803828
86.9530517509286
84.0162977760372
81.4818235928474
80.2215426156718
80.9637891380424
83.1008525214506
85.8072656158291
88.4572158093903
90.5884151256762
91.9784750384622
92.7505253876852
93.0843151665521
93.1479529779679
93.029636878785
92.8148510216413
92.5726260841478
92.2510366641765
91.87264270029
91.4696027200612
91.0115986254842
90.5245779150077
90.0495509069285
89.5707157529994
89.0605401748356
88.396894037147
87.5217073454582
86.4759766392849
85.397123684728
84.3240258258321
83.2945479320033
82.2900901314331
81.2997588243003
80.3255425377993
79.3436167522748
78.3544096909187
77.3737454896773
76.3955505808658
75.4194863582433
74.4400260411094
73.4458058230053
72.4275455448088
71.3629130061245
70.2662302259062
69.1975273757236
68.2087484655193
67.3233847754154
66.5875478313223
65.9768128380672
65.4345667253952
64.9008445260133
64.3127900180416
63.6768113431555
63.0116604306113
62.34348313169
61.7244955507959
61.2156141840156
60.8417143548653
60.632765656462
60.6332947153973
60.8551673617873
61.2713630134658
61.8478410698845
62.5241669301719
63.2248019360309
63.9193119941405
64.6221765684386
65.353223272494
66.1554898957154
67.0835457554752
68.1057880090357
69.1719337481092
70.2360952451794
71.2793675269599
72.2869218201373
73.2639401631213
74.2347272851346
75.2114487485993
76.1905777201235
77.1581704391744
78.1125525398279
79.0620798981861
80.0147814802936
80.9178613523303
81.7333301490762
82.451705611278
83.0869454483174
83.6149649793517
83.9785741302057
84.1915146367929
84.2789582095465
84.2948767981556
84.3493781186268
84.5522558707547
84.9921669985913
85.6833991349436
86.52892377336
87.329404646597
87.9470276848563
88.3625535328498
88.6331045310671
88.8057798494088
88.8835775537105
88.814896546349
88.6065642809786
88.2821251899146
87.8406283404054
87.2974176149908
86.6187866832735
85.7796047682493
84.7633377763458
83.5365942789041
82.0648976763553
80.3236682010614
78.3894076362479
76.4008220803915
74.5440487970147
72.9524486590289
71.6209107550154
70.4891979294255
69.5335206244767
68.7295677333486
68.1209398482647
67.8024616271402
67.750191995789
67.846494262296
67.8992824999106
67.7916392406437
67.4321981009736
66.7817398777021
65.9640953295675
65.0851939507633
64.2308274128985
63.47259025531
62.8450365434983
62.3824345914571
62.0846864662096
61.9406254461696
61.9031552175512
61.9480309035738
62.0545011027104
62.2422174847305
62.5091587848865
62.9017280732588
63.4878836314953
64.22865391563
65.0560091578648
65.9709000926663
66.9260244388619
67.8525244456943
68.7750796891631
69.6874531747092
70.5620204443506
71.386718801063
72.1499131329644
72.8340482884387
73.4084295173449
73.8301480506868
74.1113289773552
74.2907863831441
74.3983603403461
74.4285082862168
74.4406224046232
74.5260086501644
74.7010466129658
74.9887950892342
75.3863306523395
75.8768979379719
76.4700291382463
77.1729537472851
77.9188284576757
78.2450715268988
77.3342349978568
74.9686304052954
72.1991770748717
69.8521367434745
67.7686370853641
66.1405229113317
65.7244024902246
66.75668423986
68.5751267806531
70.3785138573057
71.869242563022
73.0877033262352
74.0697967745587
74.8516505731069
75.495725918682
76.0644344289137
76.5866313192113
77.0602485169169
77.4543791338761
77.7238329070315
77.8762758388399
78.0360547475495
78.271335633396
78.4628167033625
78.4890809824687
78.3474158638629
78.0209714680344
77.4565224845609
76.7179474838843
76.0549779298676
75.6956211433441
75.6729063644728
75.9372580870831
76.3728014371489
76.8822363444901
77.422227941132
77.9569580173167
78.4508230752121
78.9120513436294
79.3353961232377
79.7008736962302
80.0310020156692
80.3674357636572
80.6694091340571
80.9373073680497
81.1917374306279
81.3946668729708
81.5599539015971
81.7550269683657
81.9674661054658
82.1574660875813
82.3339884234151
82.5266589596949
82.7156489820126
82.911837685807
83.1317536030624
83.3365202903518
83.5238606598386
83.6591122605898
83.7728029586728
83.8730621828753
83.9510175413056
83.933077339276
83.8507473264022
83.712886968111
83.4736933200311
83.2176866188912
83.0125454539298
82.8330467088981
82.7316370989382
82.7667566161515
82.9105904438907
83.1190142282181
83.2869543475205
83.4118754291156
83.4255628383921
83.2373387629624
82.8049327177401
82.1034127427896
81.1778703597743
79.9825249472412
78.2831274695559
75.6762324830945
73.053914005536
72.6436509408944
74.3044629943176
76.1278629296113
77.4019777935178
78.2270074699082
78.6865992507218
78.9204073344293
79.0578756711476
79.105253738218
79.0263225002491
78.7308596261461
78.2410985472426
77.8382275979679
77.6145477738871
77.6409047821044
78.0374990528544
78.5590670931168
79.0050633808038
79.454429799155
79.9006074001959
80.4010730789835
80.8794416725007
81.2826672137408
81.6473268021195
82.0033304839534
82.3115719331561
82.5729640775098
82.8216538039158
83.0085592786452
83.1294225732055
83.2742692244248
83.4550155419805
83.5961711684181
83.7003398364053
83.7751765354119
83.8648688042359
84.013528200942
84.1943729060381
84.3549296447734
84.1895459527431
83.3250953501407
82.2969572447285
81.9795096952808
82.3298894229468
82.8948863755957
83.5799527591297
84.3363825697933
84.8617782073164
85.2416301406097
85.7121388457842
86.1791450379038
86.5507269915722
86.9308499798088
87.4011010071461
87.8971369250362
88.4054423607544
88.8244175504292
89.1910913736206
89.6107134381774
89.9427021418335
90.3764234032993
90.7754017391173
91.1496100333724
91.543591299194
91.9925763523363
92.3320940985252
92.4824342053763
92.3854961155453
91.9971506922078
90.9060413278607
88.7984238484867
85.7076829526174
81.9866844514672
78.111137424373
74.3421653978149
70.6481242655144
66.8013154407684
62.9708710898748
59.6992009673796
57.7897403357388
57.3244472018122
57.8293791901987
58.8665386419729
60.0232791464526
61.2575767932268
62.6298608224352
63.713871925551
64.707219546904
65.6881572872305
66.6147054046877
67.5416496768936
68.3567290435008
69.3729194808335
70.5110899882703
71.4349810867674
72.1329188783692
72.8325878295447
73.663114574586
74.2469196207308
74.5514178145207
74.7217485729294
75.1350119966833
75.5139487787755
75.5929875277324
75.6895837748612
76.2917391860858
76.8713809239776
76.8761966322501
76.5613107006556
77.9374797759499
78.5603758706679
78.7832777016908
78.8069188140826
78.526935207908
78.7606649148129
79.0401258375794
79.3907274647497
79.7895142143836
79.6858127644967
