1798
3999.43349933624
650.420452594757
1
128
4
95.6098198038976
95.5377784101044
95.612601923684
95.6749074005741
95.6416725269717
95.6058913826529
95.6215338897688
95.6264052517296
95.6255586423765
95.6006367823452
95.60744451835
95.6732282363207
95.7256469415833
95.6661869147785
95.6599549197308
95.6318922859038
95.5594022633043
95.62677596661
95.6802182528682
95.630351814784
95.6421312149008
95.6222230133699
95.5905484212499
95.5891562679651
95.5943616509746
95.5346391601369
95.5543584180574
95.6635558069948
95.6929252488212
95.6370725176965
95.6445017780784
95.7092274680492
95.7765783589973
95.7882492747671
95.7822259440932
95.6228023697212
95.5152719502718
95.6308229682739
95.7427754694378
95.6677420665609
95.654771024471
95.6524491142903
95.5202413524516
95.4858280025237
95.5860379676359
95.7209208172355
95.8047368575166
95.7554629229891
95.6841251364794
95.5749055800147
95.5040961137692
95.5348987019872
95.5244410977134
95.6191407098914
95.8273688818851
95.8832045926626
95.8030971853797
95.6978591835894
95.7080897361514
95.6561897481555
95.57790315925
95.682171787553
95.7076955832039
95.6329751514489
95.6954819056413
95.7767168213062
95.8132812490849
95.7473674972737
95.6096787040079
95.5850838569603
95.6978045198465
95.6311683595105
95.6905773637322
95.8403146794427
95.8951343852456
95.818930848662
95.5895227962688
95.2923591037684
95.4200414133872
95.8377926551979
96.0050665675187
95.9895000981587
95.8984965807082
95.7524280223214
95.6395536447836
95.507329609171
95.4924217796154
95.7027620424814
95.7402367825842
95.7078536268004
95.8448070464521
95.8689666282438
95.8248948294796
95.8041280312551
95.6154869772975
95.5650004188261
95.7012479871431
95.7336010838844
95.8659208186834
95.9549977062054
95.8507295407681
95.7837302192059
95.744588668658
95.735396992728
95.7397836982742
95.7187120176132
95.7671955512441
95.6987442551508
95.6774076160456
95.7972153807276
95.7955311602315
95.7712241615824
95.7697845148219
95.6747030921162
95.6592000845645
95.6966284976834
95.6257577173549
95.5546785009231
95.6589838103596
95.7228462971386
95.6586073416809
95.6563824511471
95.7204979047664
95.7086484046197
95.6786682785006
95.7444069156201
95.8168590556803
95.7504809212323
95.6694654654758
95.7189670046553
95.7578794289736
95.6439903559645
95.4584864434895
95.5907411272239
95.8847903995045
95.8429032926656
95.6393031604081
95.9003892601441
96.0927384126895
96.0007120898938
95.7636346756494
95.6252285342509
95.7024883828241
95.8837940871343
96.0693887449465
95.9731362259264
95.8615071878919
95.83380610095
95.7973947164644
95.8083753407711
95.8241885581364
95.8433562438864
95.7795233824279
95.6265104022884
95.5997008114387
95.7788921578191
95.9911973538171
95.9844803831544
95.8115244735259
95.6567680999861
95.6731755973527
95.746823402925
95.8457487658321
95.8460363111751
95.6575699784929
95.478366915758
95.4963342792732
95.6213184169483
95.8050821708686
95.9131047841863
95.8578433725562
95.7476839759922
95.6731203847241
95.4837746839063
95.5632254982053
95.6084121717618
95.6044070088566
95.70737985912
95.7059709427038
95.7041685180109
95.6785091960724
95.6033555558874
95.5872579642025
95.540360043706
95.5675540030667
95.5100954846239
95.3208382337536
95.3393087708878
95.4638829233051
95.5783632646154
95.6324358946101
95.5725982393706
95.5799590478194
95.5822824946838
95.5209925483795
95.4663223235039
95.4480756946759
95.364670743944
95.2883564117019
95.5124841674886
95.6538950217196
95.569432666703
95.4616716791093
95.307246098668
95.3180850298836
95.4429922432357
95.4750866579092
95.5292449020194
95.4250399777884
95.2594698559128
95.4191148856201
95.5775964487602
95.5910441233415
95.5805650634646
95.6563192079211
95.6497467544789
95.576300491173
95.6411872136165
95.6262010003175
95.5096041726234
95.3985280820063
95.4317078711262
95.5455679317712
95.5654654913982
95.5724733607477
95.5983293122834
95.586445012295
95.6050725139669
95.8014952851692
95.7512109433207
95.5361322889436
95.3125369344938
95.2485855493901
95.4561371813498
95.6786851707808
95.7478162192556
95.6818936703327
95.4891776697344
95.3873071839336
95.4578814488046
95.5120704216167
95.4674729541304
95.4505264479272
95.4659619060043
95.5596209271621
95.6109807021142
95.5334526506507
95.4324481747877
95.4518614426709
95.4861675081936
95.4496689058029
95.506498712377
95.582031414344
95.5644659816625
95.5262650370278
95.6197544552689
95.7355020218666
95.7263656275374
95.6538926496852
95.524745403876
95.5332062776333
95.592790323295
95.650873245881
95.6833636827037
95.5819870581825
95.5537732117575
95.6740886771842
95.6855284257424
95.6347144091299
95.5607687349668
95.5708782382901
95.6457716472305
95.6997868812803
95.6090955495937
95.5871441379384
95.6362558703816
95.5003034212447
95.4145929532254
95.6332314866319
95.7614376074873
95.702185662743
95.5789266277205
95.4651698207071
95.4629135270266
95.5596857722179
95.6579071417283
95.6447226579794
95.4719658729761
95.4220354952276
95.5901721937996
95.660594570998
95.5222781997228
95.4043562765851
95.4260256916582
95.4822423087004
95.4554198434615
95.4356739829612
95.349142906025
95.2173714580046
95.1130546233075
95.1117727876902
95.1846980728573
95.232285350482
95.1857144373937
95.0694802734712
95.0465755919599
95.1061983699676
95.082246398126
95.0487870529172
95.0910699616318
95.1729782335719
95.2180257152752
95.1988112092954
95.1762114319225
95.2154091820726
95.2632217730655
95.374791512182
95.4381081957071
95.3522366474093
95.3266006293715
95.4039427113405
95.4197998676343
95.4244573016316
95.4061901865433
95.4716088065848
95.5646755196625
95.5629436440876
95.4950633692493
95.3961619357516
95.3635213399542
95.4403646066354
95.4834579455385
95.4774814512988
95.4717053249152
95.4788766061587
95.477796609985
95.4108433298025
95.4047024345523
95.4775542718128
95.4064237219121
95.3516866720049
95.4947661633556
95.6320132206349
95.5746222375909
95.404723133238
95.3693626530136
95.4600783083899
95.415869280268
95.3567220968735
95.4311019634532
95.5051214748593
95.489829304366
95.4493593043996
95.4646033119409
95.4829136420335
95.4931649515666
95.4533718366922
95.3603442390505
95.2755153584987
95.2267971544219
95.3340525298458
95.4843880804953
95.4517255876147
95.3432330371336
95.3779917271826
95.4404920471076
95.4232686850379
95.3663433909304
95.3875450304984
95.4703400462116
95.3919055422552
95.2787938922145
95.3771944609314
95.4647341265862
95.4292978107572
95.4036157542775
95.4088906967419
95.4147199816911
95.4376087619744
95.4496637115339
95.4860718971703
95.49661934814
95.4474603566956
95.4032384566642
95.4316882273683
95.5042626575927
95.5380604886733
95.5445632579538
95.5766173162625
95.5522273013886
95.4506306976966
95.412648023653
95.4466387737812
95.4822365610398
95.5174828807634
95.4924540230084
95.4102496538096
95.3732127105677
95.4383255759673
95.5014383408757
95.5203220403856
95.5096479195278
95.5116673952234
95.5490484968177
95.5792620181782
95.582326398678
95.56092621232
95.5308407881436
95.5094981555273
95.4790507834782
95.4655075745727
95.4251633586592
95.398537398309
95.4658569900069
95.5408923644282
95.551871188718
95.5161744712024
95.5063746290827
95.5550623613292
95.5865565370251
95.5918093680699
95.6090022171976
95.6119655055959
95.4914721235588
95.4319940136624
95.5061483423854
95.5850243399032
95.5972740223049
95.5833225170258
95.5773992075806
95.5660014747292
95.5192258247345
95.4742212266851
95.53194332526
95.5831911912743
95.5928382841748
95.6610752772988
95.6501945067343
95.5420050769387
95.495287971739
95.5087168790668
95.5289186382998
95.5209641718184
95.4903941984359
95.5448703220834
95.6054516852414
95.5764181749253
95.5560034218767
95.5796952281497
95.5747615455292
95.5572919311598
95.5369712055503
95.5413978276534
95.6000299961877
95.6201118693661
95.5768864044406
95.5619793892997
95.5875416909577
95.5857211880076
95.5020658110092
95.4811168169138
95.5228741933043
95.4981491157867
95.4960005229147
95.5148050101912
95.5009996010036
95.495720506854
95.45002662173
95.439906933361
95.4379595320154
95.3887231835252
95.3875261673239
95.4488313221972
95.4570918049847
95.4404284534372
95.4627602120731
95.4309776413463
95.3735590947907
95.3743293172629
95.3308530768412
95.2595772246321
95.2554183367274
95.3260490522369
95.3391512021221
95.282479098995
95.2503808554057
95.2574866564532
95.3058574808429
95.3162472344525
95.2485985606413
95.187464036737
95.2014183009097
95.2421119564859
95.1981047290214
95.1337827073012
95.1526616944261
95.2345075965471
95.2079947930484
95.091861976739
95.0923932135663
95.1716765882247
95.1951636932503
95.169550344579
95.1398434000838
95.1565871638045
95.1519594991738
95.1071598192491
95.098151214998
95.0842177644945
95.0907780387049
95.1816850426786
95.2852613719187
95.343217516107
95.3684882586899
95.4076682029155
95.4580078574701
95.4771739191898
95.4605861479278
95.4514811428773
95.4508439736995
95.4426136508284
95.4177929103778
95.3887168916205
95.3757627235804
95.3584107279874
95.2861600907928
95.2030956112085
95.1148457360207
94.9940424112796
94.9287801050435
94.9492621337901
94.9271047046666
94.8691107925958
94.8205668310062
94.7525578172772
94.6775243478713
94.6559574102296
94.6660066777277
94.6500889616066
94.6534750196315
94.6885091014439
94.6242151765698
94.484271884911
94.4038012876427
94.3350893663977
94.2659779322309
94.191659888913
94.0498757077178
93.8962691016159
93.7501488062284
93.5945343320676
93.4637320637153
93.3269251245873
93.2289284591172
93.2267170293802
93.2209365648008
93.2465019037249
93.3283413714751
93.4094449884248
93.4914108949566
93.5346384158951
93.6043025279181
93.738562422575
93.8672669199716
94.0301043925107
94.1834494816468
94.3142356695681
94.3939379409587
94.4684927601958
94.5773800120087
94.6404926266182
94.6907010526147
94.7554332336611
94.7924759257569
94.7929816505167
94.7680428328974
94.7590738878471
94.7453191708249
94.7433492038329
94.717483840353
94.6191073870066
94.5738338773965
94.543722920156
94.4642976543281
94.3987625466107
94.3460726840969
94.3058531684805
94.3042433273884
94.3381087052729
94.4098846007381
94.4640745563663
94.4889403517809
94.5595904513646
94.604361201501
94.5837784463339
94.5857054404681
94.6207043445916
94.6633526678569
94.6828270472007
94.6908901940512
94.7602223977471
94.7889233351775
94.7091311363056
94.6729308952657
94.7539003410895
94.806465393078
94.79516115022
94.7975602591949
94.8215784929785
94.8828751468137
94.938019925306
94.933916285134
94.9220197138262
94.9303096312573
94.9122027117752
94.9075329535494
94.998985530043
95.0595782516194
95.0493143094786
95.0594889374725
95.0745051303625
95.1085924363287
95.163596793578
95.1905962989896
95.2175994636035
95.250665259202
95.2782121306193
95.3284174179948
95.346793731052
95.3414657822332
95.3602261539051
95.3605775328093
95.3578061349191
95.3536843492878
95.3641556505242
95.3640038437912
95.3379365468203
95.3433322916759
95.347717024834
95.3303879332047
95.3036432210607
95.3028129153138
95.3178996313743
95.3016784387269
95.3226621727036
95.3517225957432
95.345744202158
95.3724232567852
95.4114353048345
95.4205905191633
95.4301161696319
95.434859511555
95.4266020284178
95.4536368489954
95.4986911005291
95.4861256387313
95.4560390440284
95.4731267810215
95.525345365782
95.5460557623458
95.5079235929926
95.4812141897597
95.471089447752
95.4615192297468
95.5037423578049
95.5397767145393
95.5221181714488
95.5264860688471
95.5338603135221
95.5142784326158
95.5108480509069
95.537604272329
95.5391407017471
95.492984643496
95.473190117812
95.5109735578151
95.5449663640374
95.5435490368906
95.5275642969742
95.5316807116722
95.553645512946
95.5608844597802
95.5750259591296
95.6124200196681
95.6445353741375
95.6377057563692
95.6264592141359
95.6152614444989
95.5922435774093
95.5937812634672
95.6079809268218
95.6280122106672
95.6444793196109
95.6505087727254
95.643251661965
95.6443083632193
95.6450216008239
95.6652398789994
95.6800862744647
95.6892893754878
95.716450794246
95.7135697626664
95.710070582064
95.7010700418247
95.6741003846722
95.6664228726386
95.6682822205652
95.6463875141287
95.6329307387586
95.6470276335417
95.6534566814935
95.6535606444994
95.6618335030718
95.6796755731322
95.696883919921
95.6921308913465
95.6839443612572
95.6687557528812
95.6173463566136
95.5879337476235
95.5986120021058
95.6107706198139
95.6083797576936
95.6127509234627
95.6181629249292
95.6031888825396
95.632529490705
95.6511041188222
95.6290279644059
95.6397542258524
95.6621147667058
95.6562316651663
95.6173042224721
95.6116307564098
95.6511480926059
95.6372829918935
95.636329532141
95.6718215268252
95.6406627509491
95.6235060660458
95.6722485809221
95.6763415280379
95.7163333849267
95.7332852761966
95.695560679486
95.7159699071116
95.7196754530682
95.6873116589181
95.7058266935916
95.7801361522765
95.7901485451058
95.7434045657388
95.7496707814249
95.7721451883268
95.7591520260603
95.7352204413759
95.7718606866621
95.8176316305884
95.7960094493687
95.8045650563463
95.8146992994658
95.7881787092429
95.811836209918
95.8594383412817
95.8708696322833
95.8519435066557
95.8233384099447
95.8184962110768
95.7997999631255
95.8149137500952
95.8490042355335
95.8448305429385
95.8244983009279
95.8472628914999
95.8756975927476
95.8809326569413
95.8903528149199
95.8879892417437
95.8662951323414
95.8875681698476
95.9405994535282
95.9139051579704
95.8694952582733
95.9131932911937
95.9048861000739
95.8313706284891
95.7806812967687
95.8191261165398
95.9249838792479
95.9765408204112
95.996430432065
95.9898130516262
95.9284187701378
95.8831255084821
95.9124907003068
95.9170271195696
95.8685828535816
95.8688931134749
95.9240998535941
96.0033870137297
95.9918159422397
95.9172685865988
95.88513842708
95.9005999902174
95.9489119166896
95.9695044423444
95.9936548671985
96.0440597086706
96.0578817415992
96.0295034956539
96.0197765737768
96.0170266410618
96.0078568477284
96.0534238650567
96.0302309260207
95.9906398279466
96.0257182833901
96.0415402947407
96.0360839089736
96.0564481428809
96.0731058589811
96.0390902036338
96.0274376861991
96.080367918187
96.1138020904432
96.0640813750097
96.0385112557475
96.0354401403871
96.0463501013002
96.0809961253491
96.0898312344397
96.0528449311036
96.0318877576504
96.0577081327324
96.0987092641145
96.1384427826397
96.0839820961289
96.062150106876
96.1333300865122
96.0951512648844
96.0174177081361
96.0608016051155
96.1029247518621
96.0822881549381
96.0623538761512
96.0120773483247
95.9780050482327
96.0185580428958
96.0296536788844
96.0459194452937
96.0927079656799
96.0567663356453
96.0182434213213
95.998977870248
95.9697187964756
96.0319931841475
96.0700401577542
96.0698170336279
96.0564877398906
96.0341464349996
95.9645816844179
95.9349113290664
95.9473290935308
95.9648652063414
96.012449427389
95.9987157854281
95.9644203493046
95.9725738211985
95.9592002117209
95.9660594583188
96.0097194953894
96.0766968434672
96.1254228659594
96.1066328225022
96.0421445195286
96.0349982902018
96.108325003334
96.1865590001265
96.2203588263804
96.2119359637287
96.1495575877632
96.1519515234713
96.1516520505505
96.1069839181904
96.1198216876547
96.1478363767469
96.0671855115418
95.9822110555955
96.0275127985493
96.1291780014788
96.1768665315742
96.1605552443573
96.1230452800349
96.1125473748016
96.1239223395722
96.1239410370278
96.1479240669695
96.1312323544975
95.9763662356678
95.8555890030613
95.9142287909272
96.0254940078377
96.0812055435643
96.0574011913727
96.0336791298128
96.0462491042734
96.0342618349202
96.03907611534
96.0907277415675
96.1290182556845
96.1904477310509
96.2372527903463
96.1564261539049
96.1262171356721
96.1494191691291
96.1005579287013
96.0919445671588
96.0567392872256
96.0143439576821
96.0762899650866
96.0843241776104
96.0746870796421
96.1486304796665
96.1757963392418
96.2124880936223
96.3277529704682
96.3759278413867
96.3515943059318
96.4095818569515
96.4924811413628
96.480396320013
96.5207555317021
96.6230139764082
96.5592083013339
96.406231337236
96.4767570238212
96.5944510409721
96.5079724663435
96.4505522039051
96.4983312676925
96.4682515991185
96.4617896197629
96.6483894323712
96.7938693271939
96.7878897239026
96.8076991448778
96.721939052931
96.6233957396989
96.6438368092776
96.7504040045558
96.8806181297188
96.8852350915699
96.8036648331509
96.7951437166992
96.9142041330526
97.0185353755792
96.8801622155701
96.7675973460829
96.7539404001173
96.9292754385267
97.2152210778479
97.272190378907
97.1362482505581
97.0027057197792
96.9804860275834
97.2790245779549
97.2768542556276
96.9269742741584
96.9672290691549
97.2081695074928
97.1014723512241
97.054410459625
96.9645086919318
97.1023252409168
97.3361057319721
97.4211676206194
97.4708057382068
97.4451881394267
97.5425233859414
97.6878082090132
97.4767915010571
97.4073318048022
97.3477456865915
97.3825103886449
97.5685897383507
97.8069955730822
97.8897056365788
97.8432279287726
97.9729440846878
98.0421147446485
97.9652928103167
97.8791484536778
97.4628996183698
97.1692944425816
97.3468456055657
97.379963900926
97.2924727496212
97.2636462624202
97.2253864444897
97.2488807035116
97.1736009139786
97.1237851294952
97.1510118904127
97.0601618621824
96.8270088532484
96.7120906303527
96.6374605024213
96.6484888800522
96.6765291991116
96.6923652281917
96.6832076079083
96.700120187525
96.6592855238948
96.575762314243
96.6402602705326
96.7302814920548
96.6467392456649
96.6078908179966
96.7542735266258
96.804077640915
96.7550867622514
96.7710047386486
96.9132141961903
96.9022517469063
96.8149782681492
96.8840593385426
96.8957165380334
96.917475312577
96.8796831947253
96.7204637113126
96.6140735410392
96.7140127166936
96.7948365328675
96.8504915948716
96.8628653459934
96.7922966521321
96.8686752273719
97.1646245805676
97.2486974817611
97.2600875151007
97.1378687132147
97.114637864557
97.4399784438901
97.5752377727725
97.4389912110891
97.418460750676
97.4549905662176
97.5200916288148
97.7518756816222
97.9575206446321
97.9554528255323
97.956931174852
97.8696339457579
97.7561794628256
97.8524436764382
97.9223331500245
97.9933827392137
98.0115852352775
97.6765772803752
97.6841464973927
97.8923954032871
97.8650361510389
97.8684310096908
98.0225888397567
98.0726507811808
97.9884594529285
97.6147362745693
97.4555860235779
97.3410072127085
97.3801720101149
97.805476175369
97.7807671269787
97.5518888361405
97.5780280946111
97.5297993088314
97.7302812041916
97.7830777365244
97.5685704622994
97.7062812874709
97.771554147387
97.6970719167888
97.69371159379
97.491234098613
97.3050866161788
97.4490145263588
97.7753737653209
97.6929578597516
97.7515679732583
97.671227823015
97.4161069699511
97.290508623122
97.2727090663406
97.2664824794079
97.3063083110808
97.1472870516554
97.0161920549377
96.9705339305985
97.1182874395636
97.1855128746047
97.0559860961531
97.0305510026456
97.1252938364103
97.1844559511495
97.1583765056672
97.0993358956426
97.0755026937007
97.0869740630789
97.1975289362659
97.2027873094135
97.1488098652743
97.0464841245269
97.0178867647434
97.1911310167631
97.3230345875805
97.2324870243877
97.1835522346208
97.1750161155439
97.2636222209982
97.2940949463927
97.2895365361007
97.2688866588012
97.1917456820277
97.309455580491
97.4613431991978
97.4132501040376
97.3686371221473
97.3607658636967
97.3162381253243
97.2640658591677
97.3315897778087
97.3879899025419
97.4539828586446
97.5436657000339
97.5522055915923
97.4519338015466
97.4104151131074
97.3885551539924
97.3972965411958
97.4115587553287
97.4337225062624
97.4714704649878
97.5483676945496
97.5501708096295
97.491247964038
97.4114633288784
97.4161945509573
97.4324564587996
97.4388568527747
97.4547315704095
97.5048328295306
97.514290872594
97.4981597693453
97.4357112235687
97.4413739959798
97.4585625788524
97.4159439984664
97.2498588251256
97.211332722555
97.2663550428175
97.2734981435382
97.198197523607
97.1196324810487
97.1216935153508
97.16908300629
97.0773210845255
97.0709614393692
97.0861973575813
97.060973637149
97.0213564956371
97.0020647536278
97.0482454636346
97.1258442916728
97.1404831920186
97.1036612826398
97.0593143450872
97.0524870038081
97.0551004793459
97.0938172691158
97.1011131771746
97.1305048362254
97.1678361428302
97.1744237730563
97.1643168004129
97.1886503952639
97.135550360496
97.1615960079005
97.2279956796808
97.28787269082
97.2645148739702
97.3008712104699
97.2802350782014
97.2395081829859
97.2583061586273
97.3304972402265
97.3758289401883
97.2639264266941
97.1813353184016
97.1402711166615
97.1504201638354
97.1934271467309
97.1192017617695
96.9772726892024
96.9185919905943
96.7792432589868
96.5844819822981
96.4591304073783
96.1509009136513
95.5275701279537
94.6592026440653
93.6807932633174
92.3858155894466
90.9543846929407
89.2085391820754
87.233446629619
85.8870837164805
84.251012786183
81.9236241104686
80.2190507572834
78.5937452748789
77.0161875740959
75.5223523544226
73.9262588825265
72.4440971524373
71.1503763212821
69.4701437689072
67.6938228397061
66.7073108217524
66.3716400481127
66.504021567409
66.9228498232218
67.6642890646051
68.8170443763411
69.686666306545
70.7562182004678
72.871023065456
73.8754555165379
75.4529479880363
77.0128976604465
77.6901503320483
78.4545484478942
79.2581951374979
79.3928018095042
79.8155670410724
81.4756922827073
82.123243767099
82.4747063575664
82.6147172487985
83.3100180486669
84.3071143889234
84.4893509774424
85.0176193406135
86.1434088079883
86.5346459198731
86.5385674771468
87.1878665854055
87.9675211876307
88.2680023725117
88.1834832525663
87.5459002497196
88.5754175053441
90.1962705652233
89.9222821786056
89.5230304520202
90.2404996676511
90.6883311416035
90.6739988683183
90.6433222706976
90.4720011701521
90.4776239559704
91.3277629153823
91.6631791892842
91.5323919033246
91.4845397489521
91.6984012708932
91.7373444333521
91.8335851518478
92.165423192081
92.0620326263786
91.6964936653125
91.8365805868489
92.0144926863454
91.9160241601467
91.9498648274225
92.1652419312237
92.4440225331142
92.6257621714697
92.8282126377604
93.0883051004565
93.3103294858568
93.4079276354843
93.5086478573808
93.6381081295979
93.7019909383054
93.6559715118088
93.6014516682324
93.4538674985178
93.1821049754091
92.7420920897255
92.2460301564291
91.7835161324128
91.7480055754695
92.5070361542945
92.9497053904516
93.0170370268591
93.3899028231828
93.8598342799671
93.9861640523348
94.1154749465222
94.0264502194076
93.6566054451883
94.3643310766056
94.7820857473307
94.7241968807272
94.7706278086847
94.7651999605908
94.8717494757493
94.873643982315
94.8292597368064
94.8546051000032
94.8491489955277
95.0751576698814
95.3584802965422
95.2781897461137
95.0471704723397
95.1191863895883
95.1501065422345
95.0397106128617
94.961276054877
95.0340557739924
94.9937119499451
95.140813549756
95.3221806396647
95.3111153736512
95.3850963765051
95.2624658636904
94.888782916419
94.2435738054052
92.7896567672354
91.2951525471929
91.4967710132352
92.2577964890902
93.1654342335486
94.0272911779147
94.7635638053726
95.2674244707274
95.4140298026477
95.3564394307915
95.3488250123954
95.2792584975058
95.1199789045214
94.8585382287165
94.5154408957139
94.2164091484198
93.8842910301911
93.4713605943188
92.9284531758425
92.3543753137889
92.3711051418664
92.6228677079119
92.8443000119661
92.9412267184431
92.9835470632454
92.8485233381554
92.5698043179448
92.2675761199287
92.2976742240381
92.2617332820257
92.2344272957936
92.2837946055011
92.4140254732939
92.6150697970064
92.7546818156314
92.8600244528537
92.9610778615757
93.0134793009379
93.2198069411496
93.7047651346548
94.0611952961379
94.3710822703401
94.7024880200304
95.0032740938035
95.121752838734
95.1131255549045
95.0531373265269
94.6767395493774
93.6657726824552
92.1653577376369
90.0791403532604
87.5398646521786
85.1932919335799
83.9986055876253
84.1109742245145
85.4060655670018
87.139114750711
88.4790128040465
89.6152372286997
90.6375032274306
91.2721412936082
91.8148796779657
92.1646596474059
92.292286956826
92.3026389076083
92.3376652310176
92.4158619551773
92.495517657277
92.5424156471997
92.510676535359
92.4503707319196
92.3072472139999
92.1448806698447
92.0367746806235
92.0229708943303
92.2516120372503
92.679108200367
93.116286149716
93.5798363152401
93.9495279766005
94.1283247251748
94.1497709175624
94.0367466192559
93.7268112797892
93.117015728237
92.0628582770852
90.4198365603044
88.161910787933
85.6726962227545
83.6249440027026
82.6276909556382
83.1936833092061
84.9865503543672
87.3201416505065
89.6084578172277
91.4299448450805
92.6120299712928
93.2681636275053
93.5574962327556
93.6166833584467
93.5340442707469
93.3560206434316
93.1116293448794
92.8296564808221
92.5095723660311
92.1339650055406
91.725463635368
91.2932526794428
90.8950044775885
90.5046355452403
90.00957451245
89.3782923936574
88.6255936900002
87.7651505599977
86.8300244149939
85.8846565988691
84.9691602498365
84.0779305269613
83.2003321038482
82.3413433832226
81.4872244838627
80.6258430684246
79.7350332785396
78.8399298155672
77.9856710720926
77.1399094496593
76.269369654034
75.3633619577951
74.404875064048
73.4154341841637
72.4685688946706
71.6035893750317
70.8226145911052
70.1762125728694
69.6542467578322
69.1787267538427
68.7006414937647
68.1846691898638
67.611592166864
67.0089345760382
66.4272427397177
65.8991047092634
65.438924504526
65.103313296723
64.9318147927519
64.9588578279872
65.1682663787371
65.5481583804259
66.0845868326306
66.7066274444083
67.3392446398703
67.9781558629879
68.6129319003123
69.2683632341121
69.9943300055857
70.8162360904324
71.7272493717447
72.6709503726042
73.5962838946673
74.5025847080344
75.3771445970539
76.2358084121371
77.0774179462275
77.9280775481636
78.797293310169
79.6611902053012
80.5026254127827
81.3471885453397
82.1738263805503
82.9599991299006
83.6891763334874
84.3260061952914
84.8678329289156
85.3224885392134
85.6495353384284
85.8331067256407
85.891124365897
85.8992259749392
85.9313777309172
86.0998794225309
86.4940159941771
87.1115041774279
87.8227989629591
88.4900078619125
88.9950245841066
89.3273724353542
89.5663359925009
89.7245903811888
89.767552043683
89.7071355934379
89.5273176742495
89.22836803138
88.8396574649922
88.3637898976071
87.7812842701831
87.0471989125324
86.1429220118598
85.0694935774428
83.7861081859568
82.2721185773779
80.5964421540811
78.8780856009849
77.2512110614877
75.8409645687877
74.6602294865565
73.662717786267
72.8116920510381
72.1011104021642
71.5556078057507
71.2414991317543
71.1865583127137
71.2603165223558
71.2934045081248
71.1876227902283
70.8540225348419
70.2666974705178
69.4960431074154
68.6674817044953
67.8954915789368
67.2160631587887
66.6551754341552
66.2540885178824
66.0124434488211
65.9044033103029
65.9018695070496
65.9603162461295
66.0715411608757
66.2300860805534
66.4849958596071
66.8749522501644
67.3826570002837
68.0246874077037
68.7719286171461
69.6056130104995
70.4669525409812
71.3047391424089
72.1066434630863
72.8775949825005
73.5969577587737
74.2884710026058
74.9460114631045
75.5268444290677
76.0023359673223
76.3915828282439
76.6596575156289
76.8233585720267
76.9171724959119
76.9521986546415
76.9828511381765
77.0728149812301
77.2473639059895
77.494558579849
77.8447314517605
78.2907591931394
78.7958349588112
79.4052575512418
80.0455582050556
80.3255017209313
79.5270257728154
77.4276002141448
74.9867051400696
72.9354314865953
71.0497428393174
69.5731013063534
69.2485609435259
70.253008120093
71.9061406322711
73.4989242315518
74.8094169562519
75.8550286485247
76.6820083026871
77.3705283295141
77.9601012448611
78.4708222581964
78.9283124949783
79.3317347263463
79.6681427949917
79.907450647089
80.0594736221698
80.2089915279437
80.3823879252038
80.5325047517225
80.5850016944005
80.4811491353175
80.1879538999713
79.6860268968656
79.0837966163537
78.5146250005053
78.1739151709852
78.1561917368421
78.3994400923727
78.8017024677146
79.2664158189278
79.7401913829422
80.1949844899767
80.6549238511542
81.0861366206776
81.4414856475137
81.7463525891938
82.0446470641738
82.3395234256009
82.6214573223415
82.8816651565629
83.0788744089622
83.2673101472836
83.4464179947034
83.6121179898561
83.8071714952033
83.9798699734208
84.1447964209277
84.3232037653972
84.4799783135211
84.6479617351389
84.8107832968686
84.9977971932038
85.1815015280699
85.305004272499
85.4134887109114
85.5218614710429
85.5759089246788
85.5322326442981
85.4773914949774
85.3645814691296
85.1315203292922
84.8866785800798
84.6796146709097
84.5343213759017
84.4993584056104
84.5215488956945
84.6198815194288
84.7761188949986
84.9412367687846
85.035423139083
85.0324154603959
84.8731278409664
84.4819030989021
83.8636250338024
82.9867612133545
81.8779413041677
80.3599200369455
78.1104652338297
75.9229205961444
75.6202203601014
77.077672715031
78.6400519550788
79.7184065708867
80.4460399581917
80.8956133784931
81.1545442254667
81.2609522370909
81.2428376303229
81.1111827600853
80.8638676174873
80.4916497744542
80.1029605416489
79.9198583293451
80.01083511191
80.3079934584948
80.6920760688297
81.0875844986717
81.5272791082933
81.9835289452021
82.3874012490321
82.7565842377604
83.1196364647512
83.4351026103756
83.7382854932622
84.0402477501028
84.3188874037444
84.4845322153086
84.5885812508467
84.7128199680845
84.8527173808393
85.0663271536777
85.2308525149982
85.2605659244466
85.2934617510787
85.3495665783913
85.4530772748157
85.7033281247259
85.8869777039266
85.7190271609396
84.9714293131112
84.0661215388274
83.7316862230434
84.0059990348532
84.5979215182911
85.2654226614305
85.8141603924029
86.2266576322155
86.6952146109778
87.1408199467347
87.5113322747746
87.9067363707814
88.2502716908614
88.5319211611521
88.8932185083508
89.2957691134359
89.657210272521
90.0627774800113
90.3877471550739
90.6959112541264
91.1195883543557
91.4627141974592
91.762371265797
92.0686521455845
92.4326613395496
92.8406014107476
92.9590266268373
92.8820403641754
92.5357180434951
91.5347774823123
89.6037435377862
86.7843887134676
83.5616496943952
80.1766606139011
76.7656196795362
73.3626204813394
69.9371049852154
66.535685665343
63.5465380147222
61.8025870149501
61.5051433261792
62.1140278707149
62.9579112191662
63.9830356275165
65.1801466962989
66.3419476475577
67.3155893151344
68.0565366506825
68.7363335992031
69.6841461214676
70.5946032920824
71.5973148240679
72.6201137700187
73.5260744041109
74.1253837517195
74.857368505151
75.5571620361709
76.0325340770999
76.4128740058122
76.8423932441833
77.2835243914774
77.4575533457477
77.4280673488246
77.5079155848185
78.0295698655022
78.6317925030408
79.0276234698708
79.2202168077986
79.6294665246445
80.2667727846989
80.2025986244013
80.2450061327616
80.4921244580658
80.7490391206369
80.8972157408814
81.0772116244973
81.2883976274693
81.3806794124336
81.504464134362
