1798
3999.43349933624
650.420452594757
1
128
4
95.6217353102954
95.5408595969206
95.4993538578845
95.610896268151
95.6479855469443
95.5744570257048
95.5692208898145
95.5912552064444
95.6221213957944
95.5831041671291
95.5553897667324
95.5706726403833
95.5801737029959
95.5197997373237
95.5866389226456
95.601501476196
95.5185772789804
95.5290095430154
95.5708410342326
95.5570054740346
95.6088270757971
95.5577802412965
95.575556044402
95.6296751275434
95.615754778919
95.5584499792739
95.5491263262048
95.5403023037125
95.5426185386426
95.4951833468426
95.5270194270701
95.6414640221595
95.6914382409949
95.6888127538772
95.6818985738001
95.5427726905285
95.4791492644232
95.4974953417959
95.5707602904509
95.5673985257961
95.6733720653065
95.6898377579767
95.4570702532405
95.35724200316
95.475973515105
95.6260792970715
95.7086518079767
95.7212049827985
95.7072086401082
95.5812635623196
95.3935855975386
95.2670389763848
95.2742482851653
95.4855717945955
95.8453941587971
95.9610069048595
95.7965225824327
95.6003324540418
95.6266824662929
95.6477968779276
95.5788286014576
95.6331862714126
95.5853916574717
95.4656543615286
95.5745026488212
95.6721044890267
95.658334952
95.5538309502338
95.538990132251
95.5287941418341
95.6128684552649
95.5728130011749
95.646904176942
95.6831212055586
95.7436507360349
95.7874337273062
95.6035637214062
95.1845842122617
95.1938290328557
95.6028443951617
95.8093316321162
95.854003128422
95.7498665654653
95.6940108653342
95.6081468284689
95.3722676512165
95.3655017630569
95.5719316656182
95.6445248763155
95.6553691881621
95.7476501957441
95.797044316962
95.805517023612
95.7187299168745
95.515174538468
95.5441500668896
95.6239905903238
95.4801834786207
95.6132533385021
95.8796444470957
95.8206962023513
95.7439588779363
95.6907928998544
95.6436656041877
95.5905684559713
95.4394193056866
95.5005456067731
95.6406125496151
95.6923715606099
95.7695318767641
95.726052833221
95.7041585203585
95.6850285328578
95.5906099417676
95.5775152640832
95.5671224045072
95.534655792316
95.4455458067817
95.5207145654515
95.6518584733865
95.6317759508609
95.6126591712842
95.5480327602087
95.4131490488922
95.4700797841699
95.6901400607519
95.7905521294298
95.5821640044371
95.4172946265566
95.5706501873431
95.7189589271126
95.6022949558219
95.3282981065348
95.5127590533455
95.7196697042037
95.6205680383076
95.4139594861873
95.7450196459284
95.9744089822084
95.9036533658556
95.6120476714565
95.4235630384848
95.6096131119068
95.776745863476
96.0150560491412
95.952520060634
95.7511168414992
95.6948096904011
95.6900915984502
95.7218388463588
95.7753488494785
95.807829564595
95.724108757457
95.4636767371969
95.4164823724553
95.7075693618807
95.8881760242865
95.8133001185643
95.7255703435263
95.6735423368761
95.6217935172659
95.6235192510015
95.775086542925
95.8808669708227
95.6606029518572
95.3287196469197
95.3168253626325
95.4925663472265
95.7541234229923
95.90053301371
95.8255795278522
95.5778950402627
95.4382800609913
95.2769563243257
95.4449353934107
95.4715909092734
95.4088748906543
95.6527874693089
95.8144076764316
95.8590380297019
95.8025612465979
95.5951046337569
95.4645213954285
95.4616824296107
95.5616898416074
95.5570997540102
95.2742412720199
95.1103665643613
95.2442780786268
95.5165271574321
95.6437838411433
95.5526759993879
95.5601910094445
95.5957751831901
95.511588343523
95.4746256571096
95.5234695715556
95.4225501539848
95.2539670514902
95.5234331166679
95.7421270955457
95.635239221973
95.4016063356568
95.2761020702053
95.3524847067623
95.4444016693627
95.413453298033
95.4131246783181
95.3724822383477
95.3109720253902
95.5109145479527
95.5699716775083
95.5421043443054
95.6471344162326
95.7098922851453
95.6084630668184
95.5903457100729
95.6944968951571
95.721513408546
95.6097060954674
95.4676479591213
95.5425582814698
95.6461470690201
95.5733441891871
95.5368440531744
95.6310426210005
95.7301751144637
95.736204092511
95.7929444614891
95.7630392786999
95.5787430988
95.2910473676621
95.25611408591
95.3758822507781
95.5290906178245
95.6261142163765
95.7320652665769
95.7013615737373
95.5408183919219
95.5513243891878
95.6253237424412
95.5301889255753
95.476176930631
95.4888741972313
95.5642149642922
95.6039301740485
95.5938839012064
95.5467517992724
95.5534317156951
95.6142328369465
95.5950252629932
95.5575575249365
95.5349984575066
95.4547469824421
95.4422758282957
95.6043646568159
95.7370304607662
95.6728630967598
95.5976715817756
95.5702060680074
95.6975835533849
95.7684774830524
95.7512043253513
95.7466911066033
95.6064468432938
95.4861192482751
95.5768955813903
95.6484646196702
95.6772245982406
95.6267517959097
95.5530278844514
95.5505836423404
95.643755227972
95.6531916779107
95.7052666864838
95.7770784406529
95.6648725456095
95.5952981900481
95.7987862221798
95.8069578482732
95.7638708351543
95.8579076626474
95.7153816958379
95.4483984506136
95.5146753347057
95.7320630428815
95.7470680406002
95.5603928923614
95.5456374468564
95.6820797603416
95.7218264784977
95.6751560320758
95.6127719870447
95.6129331823898
95.6577129486428
95.5745889212794
95.4745114722096
95.4121661870622
95.3336210536622
95.2050009680542
95.0891960451041
95.0768812540009
95.1641434331886
95.199408805358
95.1367250854032
95.0863823758274
95.1279852808607
95.1794042998213
95.1852316586607
95.17697138415
95.142492600885
95.1014058704282
95.1961619477824
95.300362615819
95.3586869446785
95.3109568777376
95.3668481576836
95.5465807079184
95.4584022701261
95.3200400811087
95.3921091181279
95.453148312167
95.5079449738108
95.5121141858379
95.5149147837216
95.5505325238366
95.6411535089988
95.6741817049899
95.6077501749234
95.5433546111664
95.5835277016576
95.6214380511324
95.6233243427131
95.6610914642935
95.6637646527048
95.5893298881342
95.5216670830775
95.5369528057994
95.5766125236689
95.5470237191435
95.5705392592176
95.6898553315776
95.7694201005126
95.728586835815
95.6209449697852
95.5279721893512
95.5734372165168
95.5940252579819
95.5916389363026
95.57170563118
95.5753340849585
95.6494483590706
95.619402070363
95.5294876422947
95.519316033305
95.5660638977848
95.5618630061803
95.5392411556439
95.5135979933388
95.3843517247574
95.3875293046357
95.5511143601254
95.6110358007222
95.6101676998304
95.6993767700295
95.6693692844819
95.5550346341518
95.5419036422123
95.5605462119563
95.5302215156579
95.4642187746577
95.4658199873146
95.5647449805418
95.6485528354295
95.6641588392615
95.5866499854241
95.5529794765747
95.6101540708831
95.6935947991959
95.6687827839598
95.5894011010221
95.5735567883818
95.5859454980686
95.563885991821
95.581565543571
95.6173359100274
95.5931157421448
95.5905117895439
95.6506077428943
95.6433839147687
95.5756107857152
95.5416251825486
95.6202230789818
95.68859814962
95.6611759909716
95.574541880416
95.5444978404534
95.5496493284168
95.5563440062083
95.6051919245154
95.6877804150959
95.6792510545636
95.5924303961234
95.5337240996927
95.5428323532728
95.6333714427968
95.7132789410346
95.6498944215252
95.5560161189917
95.5311854444557
95.5453447516905
95.5477588184535
95.5489673104779
95.5191569904462
95.5565367164872
95.6509527023036
95.6418238942775
95.5592356425752
95.583642228369
95.6602328510305
95.6608013338418
95.6920301974521
95.7149020230596
95.6389159845118
95.64001686653
95.5787961518768
95.5440317582018
95.5773281624064
95.5654625181245
95.6141462825076
95.6679546446181
95.6252791176184
95.5896346176109
95.6141708194459
95.6119329028647
95.5961956949612
95.6471182068626
95.6466783800884
95.5875852685094
95.5729646065898
95.5836514300017
95.6052516676386
95.5973039193254
95.5680424285553
95.5830288871942
95.6146538230828
95.6207850783343
95.5639401795903
95.5955953701212
95.6639295439123
95.6438759152902
95.585749745722
95.5475365615348
95.571600297933
95.6135461412332
95.6322020524713
95.6421221445441
95.6214131857975
95.5894764785145
95.5157555367475
95.5288717511113
95.5596637809802
95.5179814820813
95.4991094064462
95.4887209083674
95.4373173618889
95.4164387244262
95.4445499871418
95.4520470470842
95.4027733005075
95.3592568772774
95.348218639044
95.3800997753908
95.4049732016074
95.4234380534561
95.428337244022
95.3440241255661
95.2829822854383
95.3273985368259
95.268893706559
95.1888764799786
95.2238757919169
95.2894859172014
95.2866597343072
95.256943487885
95.2444634809628
95.2636031866129
95.2950086778544
95.2826375391718
95.2229526100454
95.1325557006338
95.0982695867395
95.1390667532031
95.124117636342
95.0555718931146
95.0352118695656
95.1337472713981
95.1418995519218
95.0059038743354
94.9529377882388
95.0352712175809
95.0789194008012
95.0824324823542
95.0943339506143
95.0499921472782
95.0104503534211
95.0135696860859
95.0074965666749
94.9898567328714
95.0148810091742
95.134569924532
95.2328369514194
95.2499028568807
95.2575882577533
95.3114047613629
95.3428649097487
95.3389123906663
95.3448253641826
95.3744860386364
95.366012217255
95.3152226139666
95.2826945206298
95.2792516094868
95.252593975008
95.2361934967527
95.1889818626438
95.1146691081532
95.0570645853225
94.9856714484268
94.9269591007642
94.8904261359823
94.8541866811981
94.7846260420017
94.6834646821932
94.6262976053558
94.5712472645963
94.5324066544786
94.4993544131597
94.4551981085321
94.4605379425846
94.5153003858053
94.4709305844132
94.3332615979974
94.2520346663424
94.1488003614565
94.0196228649602
93.9189149710456
93.7649026131569
93.6179516582217
93.4728925085681
93.3189331609526
93.2119585182996
93.0843861679571
92.980084634756
92.9568684232802
92.9524324053529
92.9850469783403
93.0553767251861
93.1352197517251
93.1826714799769
93.2234056184918
93.3284600501381
93.5061902253604
93.685992277572
93.8518892438804
93.9896884530578
94.1137696491361
94.2024662274488
94.3093563742413
94.4285414529624
94.4836632304653
94.5593396926518
94.6436325628494
94.6574750742727
94.682504173378
94.7177456411947
94.6741244436388
94.6325132184473
94.6572425772091
94.6273537524119
94.53102088269
94.4794703107809
94.433622807787
94.3515959050715
94.2557686093838
94.1514387023368
94.1296118251658
94.1749031810233
94.2261562382201
94.2918759576709
94.3451614894169
94.3668526778581
94.4268532250074
94.4851960828815
94.4776688866371
94.4763610237826
94.5121134298369
94.5539016908587
94.5740169177188
94.5223128293638
94.524465443265
94.5758388124698
94.5753022825276
94.6116987768387
94.6959266150507
94.7209044777955
94.6776368233028
94.6830365069156
94.7502021259301
94.7947486278257
94.8100942131572
94.8105658462337
94.839146578674
94.8590352896044
94.8046518187312
94.754791058366
94.8403489514286
94.9453758237943
94.953186255995
94.9534005542957
94.9855447197872
95.0153505313308
95.0409183364602
95.0639214631811
95.1255509795297
95.1839957676596
95.194070607751
95.1967337553328
95.1897370512579
95.2049616304893
95.2517116082529
95.2455727568885
95.2223817248062
95.2253558732728
95.2272526869494
95.2406231216019
95.2446962686205
95.2164735677828
95.2007519631583
95.207678140955
95.2187764360275
95.2078732964311
95.1699898948726
95.1543299747718
95.1946354892387
95.2191217078805
95.2266382173987
95.2685493752863
95.314639468516
95.3129433493331
95.2912442655676
95.2960356086311
95.3222984122549
95.360172156154
95.3747499404507
95.3284350281747
95.2954836086109
95.3375138055368
95.4098101116043
95.4149001949288
95.3618946247442
95.3700233409045
95.3760151568518
95.329948207037
95.3625728186994
95.4265411238131
95.410871500341
95.4116504980717
95.4451513543467
95.4133439655797
95.3839524465072
95.3944445669263
95.3818325054113
95.3454568469588
95.3434052303939
95.3752344897522
95.4117629364212
95.4345315420377
95.4204847073655
95.4129220717172
95.4526065000974
95.4683794715429
95.4429215554667
95.4226610820196
95.460038323902
95.4944477606782
95.4848056743578
95.4694698300949
95.452489053348
95.463952143095
95.5079152849124
95.5280864262106
95.5071735343356
95.4946723521961
95.5246851649941
95.5586725244972
95.5452627546858
95.5443457710415
95.5551536833069
95.5355349911009
95.5384637046811
95.5544468036061
95.5724568113665
95.5740568157995
95.5567788900231
95.5330273203659
95.5291692391162
95.5482952042466
95.5661434343126
95.5435772853099
95.5132044636225
95.5008771310005
95.5054482557767
95.5231865078967
95.5406026957956
95.5397440109082
95.5063886897613
95.4734991833072
95.4612006743693
95.4731785596241
95.4811995583809
95.4597149999393
95.4283689069648
95.441589727147
95.4536923682126
95.4193328664906
95.438811687125
95.4627905789366
95.4573707113635
95.448458515159
95.4471262670265
95.4598547878254
95.4598972693178
95.4446210245072
95.4473008307843
95.4426092713283
95.4490219623823
95.4794925509999
95.4679806949602
95.4674657397138
95.5085530153493
95.529172786081
95.5651270360592
95.5845767639513
95.559274099072
95.525492027121
95.499304890006
95.5203324962916
95.5727176679755
95.6065125119657
95.5547372025587
95.5099973295085
95.5938162947661
95.6402821634104
95.5976933526059
95.6203339165986
95.6622420885592
95.6285039744853
95.603389557832
95.6573373381438
95.6599920501602
95.6215387298651
95.6817918890833
95.7329508114777
95.7027831314138
95.6801619876221
95.7157623619813
95.7346710175351
95.6868040181449
95.6551319425243
95.6339284575285
95.5935946522699
95.6423088022541
95.6982244209014
95.6931990080262
95.7260577389738
95.747584713518
95.730882618459
95.7273226618016
95.7104275665145
95.7221062566417
95.6930591821775
95.6915764888453
95.7880903573658
95.7311706286087
95.6643203239499
95.7651732896986
95.7695252563066
95.7376430313477
95.7903013646469
95.7968257060005
95.7851980294649
95.752977774632
95.7213545865151
95.7203129399735
95.7259166809712
95.741833289093
95.775851366389
95.7788891333048
95.8330120292293
95.8410548695406
95.7826867345488
95.7469692467131
95.7327471604276
95.7495065850015
95.7672718256406
95.7862532008253
95.7785249085057
95.7703353953404
95.8034436453301
95.8605990766036
95.9042605038802
95.8667503954796
95.9018891787537
95.9490444701151
95.8844708910648
95.8351150613187
95.8549620262609
95.8835112523553
95.8774573470282
95.8786581463453
95.873578144148
95.8677173336654
95.8905471956082
95.8937834974303
95.8908268094167
95.907562365409
95.8910465152985
95.8967059037136
95.9385642530686
95.9379079330345
95.8693434065243
95.8554412369552
95.9223597750071
95.9026701993513
95.8744365471742
95.8887239115522
95.8981102468468
95.9490680590376
95.9464681866258
95.9254355671664
95.9532636568679
95.931071285636
95.9221106596945
95.9571007143622
95.8976030637186
95.8394296098706
95.8683640431593
95.8592934018478
95.8571134101066
95.9116072344321
95.9018427104109
95.8436506717007
95.8391398106834
95.8282891776466
95.8773284830549
95.918198535257
95.843311270935
95.8288391362922
95.8531443695862
95.7896414845079
95.7947884062257
95.8048177325857
95.769432642478
95.7966546335429
95.8276239513172
95.8205910015027
95.798879519073
95.7747268445216
95.7654877416077
95.7799057008008
95.8107140273516
95.8684974850465
95.9095559880031
95.8300158438045
95.8168717797131
95.9337780757943
95.955242774892
95.9788653204948
96.0076879792166
96.0097443475884
96.0552308743714
96.0029658222451
95.8901304177247
95.9161416275841
95.9576574161802
95.8174604657879
95.6886170331382
95.7371286776973
95.8554525696601
95.9525295131509
96.0038938195222
95.9639564843763
95.9157775741667
95.9230302454517
95.9414938976495
95.962246214512
95.9147580746982
95.7381617732843
95.5471433449011
95.605307221243
95.7873736623641
95.8529905881657
95.8184425585716
95.8418729460001
95.8657175304563
95.8533899074539
95.8613879528838
95.9047115307035
95.9384083160335
95.9623972275038
95.9411904070326
95.8633640729192
95.8687848372273
95.8887467736314
95.8558293595172
95.8246282003646
95.790615159153
95.8258346084649
95.9145643151899
95.9363701260622
95.9291269575954
95.9543430280916
96.0030337131644
96.0910451206836
96.152214390484
96.1301478526032
96.1059961556468
96.2008698360327
96.3539063615436
96.3777841426258
96.3694872768974
96.3701355735611
96.2608433773477
96.1716571225192
96.3416532497401
96.5469110219106
96.5565945936298
96.4611188122923
96.4529287819611
96.3713747690156
96.3002122155374
96.4874547811386
96.6673169376753
96.5974270287843
96.4889550282447
96.4502335994612
96.4960141375067
96.5394162854164
96.5718531806007
96.7454736732365
96.7991945373061
96.6874219072906
96.6982265833192
96.832547144462
96.894617963619
96.7495332986507
96.7352751414879
96.7520352556939
96.7706737773339
96.9731426105912
97.2134091181495
97.1574710445092
96.9008745411588
96.9533259350929
97.2060201550386
96.9904936961009
96.5563087096815
96.7475839031612
97.2662615119999
97.2455256714854
97.1476481051425
97.1786480971078
97.15938650083
96.9638544039884
97.0459560218005
97.3958916532369
97.4095504597277
97.4383931457368
97.6346730784856
97.4983895400389
97.4173843525311
97.3958308964228
97.3692467539378
97.5146981126156
97.746429835569
97.6988373499892
97.487793168112
97.7361431121936
97.9817352102046
97.866433348324
97.7195569820548
97.4983927961733
97.2931749029445
97.4338022800392
97.5090860588619
97.3391083973195
97.3008067458595
97.3488228802016
97.165310468277
97.0941675081289
97.2238131197183
97.1605454676246
97.1096853066187
96.9172846445696
96.71697435338
96.7215718262877
96.7027661460989
96.6574594938351
96.6849461782471
96.6114337017638
96.5512360997686
96.5729381939857
96.478701300313
96.4252308294553
96.4782083148772
96.3904074349519
96.3523777678747
96.5901350368561
96.7549887467587
96.625274018056
96.5143165532504
96.6107322785643
96.6322403198368
96.6429014190552
96.7502246157116
96.7684579490946
96.7311390491111
96.7198686631443
96.6330911079718
96.5395287485749
96.5961526548801
96.6457387926313
96.6660282985236
96.7164699803819
96.7887037265289
96.8750658070362
97.0388198861681
97.103115222942
97.1326165645062
97.1315039589525
97.0637352457446
97.1134965592401
97.2182268463865
97.2640727892672
97.2868679339344
97.421732643588
97.5519875012945
97.5647479058612
97.7469382074436
97.9399275791697
98.0166058192766
97.7623128110288
97.6168948532664
97.713554492113
97.5562773789349
97.5202056154347
97.6892452207304
97.4615276851711
97.6909251669269
98.1335567821854
97.9284154427597
97.6803963948608
97.8855233817261
98.0682014777926
97.8222863829576
97.4111019019553
97.3125727221539
97.371778587359
97.5207692138381
97.5590651056215
97.4796598934287
97.4802104393676
97.7173554453217
97.7238321800995
97.6918795676809
97.5885315403481
97.4231660652881
97.6332564545685
97.7755529540694
97.6484059583789
97.5645979903122
97.4732181626584
97.4335441355944
97.6234284374672
97.7090980954868
97.4876067074972
97.834936421516
97.7168246524207
97.2695989045922
97.1010246818786
97.1698943195614
97.3979054516372
97.4160154455528
97.2056327789944
97.1568114294134
97.0469915493986
97.004305125207
97.0437039778466
96.9334308411728
96.9146030607327
96.8926353386049
96.933981652307
97.0497710826882
97.0133962719512
96.9387032769123
96.9128169109264
97.0179694897747
97.0517522202481
97.0556557588
97.0200381193148
97.0331630936997
97.1348260639022
97.1844272182165
97.0736970610101
97.1190159601972
97.1583671758466
97.184876375847
97.2424012027352
97.2433422368581
97.183273584372
97.1695225579185
97.2439561551788
97.3272865210291
97.3457897778559
97.3415197657623
97.3447955154904
97.2660443587739
97.2403792906181
97.3363456929162
97.3655042747229
97.3843028288308
97.4021642147041
97.4400344863757
97.3497315446582
97.32071372639
97.3994554848737
97.4780258265901
97.4262636632322
97.398321892357
97.5032853447062
97.6415142876003
97.5883914508728
97.4503362968939
97.3853111038903
97.3652337165177
97.4145878717685
97.468969459633
97.4254938700843
97.4282740505594
97.4275928604888
97.3978251778173
97.3574559442936
97.376076114182
97.3558346091227
97.2948002517228
97.0837502975164
97.0817528973298
97.1657633661693
97.1857615193188
97.1172480471833
97.0603955181912
97.0571031448083
97.0491760775736
96.9102649756801
96.9621994086144
96.9414981084903
96.9276988647469
96.8940365665392
96.9030343466103
96.9509312920899
96.9931050069946
97.0404827420935
97.0065361958592
96.8960086439497
96.9136053703187
96.9621679876763
96.9913950564522
96.9617467086964
96.9616037302054
97.0337236412642
97.1150523860733
97.1249633873649
97.1132445186744
96.9799647650313
97.0523281943956
97.1601265275984
97.1890920219327
97.1179213820284
97.1368406110804
97.1114485204121
97.1545987444015
97.1588590122217
97.1919647812308
97.179818191784
97.0320089810288
97.05888471198
97.0094672977225
97.0294679067848
97.0699031298115
96.9368595867254
96.7831090376547
96.6866883233255
96.4866884827371
96.3414731705891
96.1531622417485
95.6996274798498
95.0009958752667
94.0214784368147
92.9094192881933
91.4190454108823
89.763905838549
87.7631642538391
85.5796080946449
84.0344704246966
81.9888259196817
79.5354228185003
77.6844559367567
75.8172547060114
74.0907702059042
72.4114801887785
70.6240309380909
68.9986531959078
67.4440181651165
65.4506541664074
63.717650383891
62.7469724431132
62.39020159817
62.5109765277493
62.9560544675136
63.7553269407911
65.223080928287
66.3794942740169
67.3103957789622
69.9167591561816
71.2275463804451
72.8693370788225
74.8335117551011
75.5014268164325
76.217476065861
77.0783437701208
77.0332412610627
77.3288490719663
79.6880989654901
80.4577076508906
80.7534622070413
80.7358911984581
81.5024491856075
82.7782824728083
82.8386412321296
83.3675377526308
84.8554037945018
85.2975520885503
85.080450536937
85.8099277174724
86.8486608161381
87.1537548939419
86.8556553922444
85.7119163254566
87.1619858999194
89.5184126003807
88.9611835959662
88.2519352818004
89.3614642633672
90.0098248043093
89.9088465935668
89.7741955130984
89.4365232060056
89.4039356706696
90.7277254120666
91.1775059499147
90.8768977220154
90.7196841460263
91.0287272420827
91.0579875840909
91.1815315579774
91.6466761677771
91.4384300248355
90.9055412030411
91.2489962636875
91.564416902747
91.3860645124787
91.3727281304258
91.6019763694464
91.9420769271272
92.143601107629
92.360178409018
92.6261651203666
92.8632567738939
92.964802155848
93.0894625816065
93.2104657241943
93.2740058147295
93.251910370683
93.2130498641946
93.0390043020666
92.7422579580999
92.2273430795029
91.6490127383546
91.0133711587985
90.9131796039458
91.9618154784033
92.4578998144315
92.3757746737197
92.8202803976516
93.4352200252656
93.5701964889059
93.7185079401454
93.4417201890823
92.7251551257067
93.9049414734796
94.5306035347014
94.4020960377236
94.4186444307575
94.3297465293126
94.525363799706
94.5253218607956
94.4180430622459
94.4052590279481
94.3031903441438
94.7136767192856
95.1796770965477
94.9567002028552
94.5943192108768
94.8247119618911
94.8657279495073
94.6748747136948
94.5723175767712
94.6576846471299
94.4868574362647
94.7215781823489
94.941766762946
94.8457742574111
95.0562268837253
94.9352162912737
94.4565785685205
93.6161054030198
91.7977534102849
90.352040856247
90.7339225847257
91.5088926928651
92.4229281047092
93.3861198174085
94.3485539491452
95.0239154229051
95.1258956009101
94.9343626663285
94.9387432588127
94.9225145932293
94.7612551711897
94.4332139414562
94.0401613176923
93.7372106884057
93.3183751805268
92.7898803861396
92.1155307392531
91.5459345823329
91.7412388342259
91.9660677013492
92.084668124819
92.2278995131418
92.406700278907
92.15866741796
91.6606013426691
91.2821224644829
91.6325664551849
91.6451200551955
91.5848062587136
91.5934995822532
91.7280580094661
92.0167220144606
92.1933514692264
92.302801083414
92.4124115083662
92.3775447978912
92.5711526839568
93.2666241422776
93.6545282797955
93.9557712463119
94.3502144354975
94.7218026555192
94.819539716648
94.81279542773
94.743872903951
94.1918909094549
93.098706361074
91.4864470435843
89.1178280399117
86.2186395152043
83.5634087608696
82.1835807196864
82.2278075166372
83.6887267560662
85.7365446948233
87.2274705229461
88.4549161853447
89.6790324247875
90.4049196748809
91.0616026047806
91.4813828246656
91.5700100713564
91.527337254246
91.6244355792004
91.7582302023227
91.7879312815979
91.8264819448365
91.8126386664215
91.7662061243153
91.5814144126362
91.4267103507685
91.3467135686076
91.3206760805888
91.5836818434926
92.0542017629558
92.4776778018519
93.0086299079188
93.487114976659
93.6742355368634
93.665423718201
93.5343092475563
93.1783482308228
92.4619269889866
91.2355866036771
89.3607686112292
86.8285027749547
84.0368378932103
81.6754652595158
80.4472717062189
80.9833524290815
82.9271922339192
85.5343288972848
88.1687287483948
90.352262782646
91.7937944128652
92.5948334136917
92.9698174598512
93.0655053527151
92.9547747110341
92.7505169957219
92.5115803690208
92.2226806859541
91.8690183627392
91.4537662748218
90.9933874281235
90.4982830744348
90.0410947107955
89.5914009406632
89.0503017009676
88.3617649138197
87.5064471794095
86.5131789447876
85.4516887493646
84.3900373079036
83.3518466992719
82.3349642619438
81.3483896191747
80.3768245742398
79.4075170580759
78.4403676080343
77.4692716100756
76.4903593747862
75.5263114927622
74.5744279881867
73.5944222038221
72.5534588215553
71.464006981125
70.3670757540314
69.2896801179058
68.2740911144046
67.3772565420131
66.6477363238877
66.075184485994
65.5568225063774
65.0231569993077
64.4466406913702
63.8178608962598
63.1304689493789
62.4470952193739
61.8270715114049
61.2928463761207
60.8982797802508
60.688542579527
60.6979258622611
60.9285951215897
61.3577797864799
61.9389541724357
62.638301325298
63.3651663189793
64.0597075369385
64.7607285110926
65.4885752408668
66.2940756486905
67.2193244092191
68.2446400566745
69.2959113594842
70.3345713536409
71.3632141490392
72.3465122856808
73.3056751012829
74.2761587599595
75.2396436464458
76.1882768875147
77.1516504734784
78.1181793829687
79.0626467646723
79.9816858930402
80.873227301169
81.6908320439833
82.4172982526274
83.0461492487945
83.5550971169547
83.9253018498842
84.1394522993635
84.2098377857251
84.2256761627325
84.2684860855909
84.4576256004495
84.9022379164992
85.6188922281679
86.4784918109781
87.2603781351625
87.8523554666305
88.2655307565474
88.5392120709822
88.7018241743182
88.7452594271171
88.6726356128744
88.4618929739997
88.1104007682222
87.6672159929794
87.1438049633767
86.4696053897564
85.6247464148693
84.6051630209715
83.380017812111
81.9247662300119
80.2249488474775
78.3423519620205
76.4228762176921
74.6113331157986
73.0412993631826
71.7253406714415
70.6079305041392
69.6417362998088
68.821232231958
68.1731845945294
67.782807650869
67.6811025425162
67.7614134899495
67.8250365266512
67.7286307930012
67.3620697089535
66.6892716649489
65.8072549232354
64.8660442614119
63.9899613938182
63.2206971943658
62.5848190024475
62.1197562460392
61.8269115385744
61.6931833301455
61.6841279411079
61.7579201243369
61.8794674902881
62.0646851972416
62.3630641755079
62.7911796865855
63.3808282708975
64.1485369792888
65.0095449475908
65.9353800959941
66.8850340443722
67.8290444054053
68.7603800312894
69.6570805600943
70.5140426717625
71.3115667138397
72.0486291001147
72.6982130979607
73.2390445070614
73.6970074760759
74.0183221908162
74.1924822571096
74.2914099178654
74.3436512708872
74.3841690890423
74.4892696639339
74.7006187075746
75.0228355508673
75.4654800725962
75.9851951586064
76.5795092684991
77.2923215444263
78.0064551644545
78.2863767567552
77.3435921580677
74.9718168687652
72.1932355161735
69.7996554998047
67.6237481338799
65.9338376563585
65.5906270933259
66.7825876016636
68.680574941308
70.4775057481386
71.9741205302364
73.1742479209444
74.1085262410805
74.8674550249698
75.5178204826587
76.1050618262023
76.6114469149346
77.0370499830152
77.4016437062743
77.6663947511389
77.850394654558
78.0148506854722
78.176368979797
78.3463986828082
78.4101739221407
78.2819884719978
77.9229596378246
77.3433083830497
76.651208218927
76.0110645613495
75.6255882049674
75.5707170995346
75.8420235235345
76.2908239499809
76.803630494748
77.3439053103729
77.8528514198049
78.350870109909
78.816987559148
79.2333501121609
79.6020182503845
79.9197254072796
80.2194191869065
80.5414456531102
80.8258359352705
81.0621858034169
81.2774997406374
81.494122401093
81.7083820794626
81.902595388183
82.0766788678935
82.2636852069257
82.4569856454927
82.6590043820454
82.8493516848956
83.0425000708278
83.2339800602518
83.4322501813841
83.5939732034844
83.7177321071133
83.8285288847434
83.878121647518
83.8328866085155
83.7620382326788
83.6352076146213
83.390161752555
83.1263088492117
82.9292585505461
82.7915176059812
82.7216981861103
82.7491799691519
82.8596387941677
83.007964354193
83.1679765980571
83.2809471652109
83.2879423705096
83.1105700242284
82.670145859112
81.936708017411
80.8994463485488
79.5986964044002
77.8666750064614
75.3296357506572
72.8407829585989
72.5261463876412
74.2289645882439
76.0300805246875
77.3046493716512
78.163339575091
78.6922578739947
78.975586235938
79.1163921949317
79.101320970879
78.9498661481717
78.6534462981981
78.1728874336752
77.699941426482
77.4649823622516
77.6174093855099
78.0456561895098
78.517649559893
78.9816207846544
79.4407619439441
79.8968264739254
80.377574606502
80.8482075864152
81.2408397597612
81.5835003847617
81.9004285324042
82.2434480768361
82.6051962346445
82.8549871448046
83.0105156427293
83.1872834104008
83.2972460431539
83.402944149966
83.5279778673664
83.6563356330301
83.7619869915877
83.8480840719148
83.9638555625961
84.1952027340082
84.3483415318209
84.1556963526072
83.3569459180102
82.3402569988715
81.9525380647352
82.2907738267409
82.9357004812172
83.59108016579
84.1993176335961
84.7144675680454
85.2049889328073
85.6546280360735
86.0848199605999
86.5222039553681
86.9073052334139
87.2635290767906
87.7164956411138
88.1996557014222
88.5688986539961
88.9564119319366
89.3611623026367
89.7220010456857
90.1111222387149
90.5340139418525
90.9814282372152
91.3576968197728
91.6255665142706
91.9104913756082
92.1254272100344
92.1653171291689
91.7251164865575
90.550199935976
88.4527864470844
85.334112776805
81.5900370286567
77.6463365836162
73.8052276918904
70.0280170588815
66.2562942219706
62.5666734967566
59.2614218059342
57.405094156402
57.1316525079358
57.7871078660155
58.7576405809453
59.9449338955305
61.2581323075269
62.4337796247676
63.4369197714026
64.5292929590177
65.4835986891571
66.3712401756217
67.1630059094839
68.1544017272211
69.3211247793123
70.4688726156495
71.4552760764706
72.3790414642999
73.1904010024735
73.851258275658
74.2786512657905
74.6759649137943
74.9406259566036
75.129390802721
75.1962756253207
75.3389121850043
75.8096864046468
76.3880491231837
76.7417774134959
76.9711347890739
77.2032866638453
78.3074323035409
78.6552134811536
78.5184210774827
78.606193398001
78.8413498890007
79.0430247484185
79.1840432598223
79.2214388943975
79.2075728130141
79.2166905652772
