1798
3999.43349933624
650.420452594757
1
128
4
95.1897478658807
95.1302913250033
95.1370514073059
95.1882393616741
95.2073456581568
95.2014354187831
95.1334672997089
95.0902407418884
95.1321432795559
95.1373827406078
95.1472246236136
95.1547577430016
95.150488324972
95.1716615611852
95.3025506711383
95.3068347223392
95.172887600713
95.1286318254179
95.1259712508237
95.0976662647568
95.1468126166203
95.1967079548011
95.2399734240634
95.217369951758
95.1888211589096
95.1087347605124
95.08228788561
95.1530851112988
95.2127569772058
95.1813001134912
95.1838884845236
95.2262827940912
95.2735047999704
95.2879524584708
95.18949352887
95.0584530485743
95.131753485551
95.2532253693361
95.2634491533585
95.1769366786864
95.150773071882
95.0963753513566
94.9303874399389
94.9240627583795
95.1361119155732
95.3225256377611
95.3857485487981
95.3551030664451
95.2343648172113
94.9759531057705
94.816417113179
94.879549655103
95.0134772553424
95.2440114718951
95.4774116090379
95.4585094094259
95.2267942379414
95.1907654753937
95.3082852337036
95.1183839441702
95.065258179331
95.2532700634168
95.1230493345612
95.1022485138435
95.3579472512391
95.3522566278038
95.3000361193519
95.1098517105215
94.9013429615669
95.0922008089754
95.1718239258245
95.0516467092801
95.1923908272599
95.364257103473
95.4358484345531
95.3217931864799
94.8688327850186
94.4026847148804
94.8765145952555
95.5181901533334
95.6985994727203
95.5498666981851
95.2084303589865
95.0284463906135
94.9610105832995
94.8325776380129
94.9321754791284
95.2111658997907
95.2666321635999
95.2724493741232
95.3885580921727
95.3375209638212
95.2836258256189
95.1988575476702
94.9485950861405
95.0394409085331
95.1482040245162
95.0815491930766
95.379496559817
95.5800357040386
95.4387997588528
95.1611695266387
95.0796364680297
95.2208386643749
95.0687894867423
94.9984437768754
95.2382516731725
95.2167752406518
95.2940797572856
95.4436071917307
95.381459544847
95.3334792827697
95.2911724241945
95.1036503748009
95.0565836195276
95.1494457349818
95.0883216589375
95.0358411904304
95.2409081280357
95.365655320235
95.266388472306
95.1006838397198
95.0749618529043
95.1036036312691
95.1365262141704
95.3331969364115
95.3693327699628
95.1717696052202
95.104003907548
95.2106023513932
95.1700799396919
94.891423828832
94.7191998314129
95.1207005390142
95.3614128136235
95.056357024075
95.0436147898551
95.5326989102205
95.6282153620319
95.3461379717802
95.0520266360158
95.0650931791506
95.2946862255737
95.4739162459484
95.5531078908085
95.386210708631
95.2349175183255
95.1619382865444
95.191043918208
95.3121165034939
95.4411831510241
95.4738175495653
95.2280439623672
94.9333894070174
95.0944634757205
95.4304855763562
95.5281210040385
95.3814730512148
95.2093161103834
95.183294621219
95.1683325194022
95.1961942203969
95.3976405827818
95.4016555810765
95.1194794075906
94.8793025176762
95.0191769606299
95.2653488806092
95.4086818581064
95.4166083796628
95.286245664389
95.0440168557107
94.792760718831
94.8780734880056
95.1495995769046
95.0143760746413
95.0230726799569
95.2937272813657
95.3772795345435
95.3333411179147
95.2245400673273
95.087813661671
94.9382857100267
94.9224927554205
95.0540594209356
94.879143502139
94.5325936605834
94.5248241420389
94.9031416668648
95.2003708922981
95.1648413398427
95.0215413622355
95.0701349864692
95.1069105758067
95.0259798791577
95.0262353874223
94.9544067185091
94.6247250833885
94.6544500726101
95.192173843408
95.275432607885
95.030661578469
94.8456807613174
94.7750098702074
94.9235323707073
95.0016416709893
94.9332191868373
94.9712189824737
94.8512689919615
94.7565694487255
95.0483723543059
95.1633043649197
95.076710241093
95.1158246244027
95.2111283270788
95.1444326752222
95.0825111630664
95.2133773145551
95.2035650850841
94.990784834642
94.9503040437799
95.1115381203986
95.2019376792277
95.2113061667071
95.1971833230731
95.157508579906
95.126074306238
95.1295426766088
95.1932252196692
95.133065458068
94.8429449639639
94.6139030995259
94.888248342929
95.1312551077096
95.1589925927678
95.1978613645001
95.2292894250598
95.0722773968431
94.8924382122368
94.9172435635758
95.0036084972146
95.0140959564577
95.0303434763475
95.0768056497343
95.1535784334139
95.1554885939015
95.141963629888
95.0757060002652
95.0245907689635
95.0112543966966
94.9989426128025
94.9620289199805
95.0146154166436
95.1086586389022
95.1164983806663
95.1795241071842
95.2291380737249
95.1315434309371
95.0422781704639
95.0309778708475
95.0944604337852
95.0717640541157
95.1547269032318
95.2807294677132
95.1654903855032
95.0225651612162
95.0342990476463
95.1054627185927
95.1325375464671
95.0751846260158
95.0521946254067
95.1365675267179
95.1999063239989
95.0953579752701
95.1430767325727
95.2656900457933
95.1583992849094
95.0236693656607
95.2281668044073
95.3499408082095
95.2732194847325
95.2364946428893
95.1026196038583
94.9224799342737
94.9549434421179
95.1456826906669
95.2041663409006
95.012471627335
94.9853384446662
95.1417261546806
95.1813904660314
95.1461077147527
95.1443261488699
95.1102322823029
95.0620245235648
94.9689723534498
94.885687388794
94.8007138402026
94.7599878016132
94.7159634243052
94.6353453137465
94.6252435122315
94.7341872610301
94.7728054614632
94.68599343798
94.6368759465252
94.6449803483002
94.6700970020626
94.5950742235126
94.5179884612854
94.647479071291
94.7630320451057
94.7659111322342
94.7430884289891
94.7322240324173
94.7460245213682
94.8857408442642
94.9909725155953
94.8699931723994
94.7721116824272
94.8647373277146
94.9636027854665
95.0581508590053
95.0514309370431
95.0225012831787
95.0828002065971
95.1314022736104
95.1533732069897
95.1274583133369
95.0389145504687
95.0340406151147
95.0955991216739
95.0887594108096
95.0185226187421
95.0291135166891
95.0208852712547
94.9395242542611
94.9821619383205
95.1057543593115
95.0768706857817
94.9684882498702
95.0135822474564
95.1942637342987
95.2483982471127
95.1309211364277
94.9944202856895
95.0340650758757
95.1113131856273
95.0410251389589
94.9950096621373
94.9930774289864
94.9854097486625
95.0593119892176
95.1244987188782
95.0436517558748
95.000971729603
95.0456967164897
95.057672961225
94.9703600242767
94.8297289393909
94.8813391621744
94.9961714510476
94.9877901146983
94.9885128866241
95.0769500523158
95.1028322811867
95.023366751382
94.9967963451365
95.0059868542774
95.0039700239085
95.0136392022961
95.0024632205952
95.0356886452386
95.0523074222914
95.0263223253443
95.0079865246636
94.9844252220136
94.9937375723806
95.0725842249337
95.1197967408156
95.1055054400678
95.0639165733386
95.062363847069
95.0617632501166
95.0123617115451
95.0023461950416
95.0406009569136
95.0470604483042
95.1007565526276
95.1258583567604
95.044752907342
95.0045214380533
95.0597216490767
95.1049241542129
95.0963931659363
95.0597930704031
95.0420694706269
95.0020617052654
94.9883636875833
95.0673849311157
95.1537839978436
95.1009867046221
94.963411545567
94.9787250325134
95.0929954210777
95.0947617204814
95.0740029661662
95.0883612317825
95.0415099333616
94.984081058339
95.0067462155309
95.0178937466678
94.9958469998205
94.9665206984618
94.9837735621243
95.041613396613
95.0570263433699
95.0127030070013
94.9633024557061
95.0040045035098
95.0572677699637
95.0841494649761
95.1706250756638
95.1625929682829
95.0873910102258
95.0556313925385
95.0704829721605
95.0229750531979
94.9850182650667
95.0575428360299
95.0795916014868
95.0300908770437
95.0227340109101
95.0788203936363
95.0638022934604
95.0139546216842
95.0795968760767
95.0888899458979
94.970427950747
94.9263449749453
94.9775000705117
95.0214214518428
95.0253468136797
94.9799438896187
94.9916529334998
95.0601090033991
95.0715943881131
95.0364858648325
95.042548341652
95.0258243516399
95.0171345187969
95.0188342469295
95.0041583448332
95.0557827143978
95.0633844563708
95.0295084753292
95.0696211941538
95.096933660073
95.032163773533
94.9504712040564
94.9472768719565
94.9210595029617
94.8751755494574
94.8856363029477
94.9363079427193
94.9385470658192
94.9360569580175
94.9108603573248
94.8672894502406
94.8444602405678
94.7930017654736
94.7836362717
94.8333217003936
94.8416299730146
94.8395455568529
94.8533209622799
94.8364488480717
94.786706306628
94.7364903941925
94.6829323405526
94.629239429586
94.6324761347031
94.7057579162921
94.6939195016341
94.6457428179506
94.6848026798353
94.7165246287613
94.7341184931791
94.7426877967946
94.6768818336272
94.5543809122683
94.4753766021707
94.5294180779249
94.5945520380015
94.5482529885702
94.496254078882
94.5789704428359
94.5807062009984
94.4592488349815
94.4604886197926
94.4971574696401
94.4847701278651
94.5121413358664
94.53056509888
94.5140579098727
94.4691114837456
94.4066199134595
94.3710361526381
94.3773808977855
94.4229306673025
94.5354469449844
94.6561770772194
94.6817157118438
94.6921513945376
94.7442293949605
94.7515326027114
94.7493180674523
94.7549754284952
94.7856880821806
94.8137079305559
94.7872349653267
94.7587382020383
94.7427009145587
94.6824023066308
94.6336969003386
94.5895779209522
94.524968341293
94.4549153093918
94.3369003373308
94.2766484728882
94.298437972618
94.2648404266753
94.1526875981703
94.0506405267332
94.0049756757506
93.9675142843575
93.9759807596422
93.9611646251325
93.9171224266429
93.9323405436679
93.9430041776354
93.8748243755394
93.7669737914846
93.6753973959023
93.5714843104989
93.4607598973406
93.3630387562928
93.2345333609406
93.0941307061154
92.969588430509
92.8248472144144
92.6329082780852
92.4862044774637
92.4453651565431
92.4070921895717
92.3761677007209
92.3881035134972
92.4417195699845
92.5235669800251
92.5836120888522
92.6990366119177
92.8505804387158
92.9563139142781
93.0799942462648
93.2629061219607
93.4022315370945
93.5072331513284
93.6114612011509
93.724468942733
93.8458070859946
93.8903648940347
93.9488756139497
94.0399691247061
94.0625000269699
94.0751879811558
94.0901505124408
94.0660042512464
94.0343639271652
94.027895639133
94.0052475428522
93.9561495006068
93.9051555721045
93.8371806953542
93.7499322042542
93.6354556658381
93.5500122093716
93.554978939342
93.5778526645453
93.6202178625166
93.6837952152847
93.7032737107197
93.742433020669
93.8409189817502
93.8755176002762
93.8716416947526
93.8989508744356
93.8932809978021
93.8970442281705
93.9486043520158
93.9619610149521
93.9791971549743
94.006699096071
93.9837482964959
93.9895908110466
94.0790340066731
94.1263837365039
94.0957345316103
94.0890164775838
94.1373439810027
94.1657810078014
94.1791593042861
94.1894902783413
94.1912324892753
94.2125791390074
94.1867432428626
94.1717380508014
94.2315647167162
94.2961154202637
94.3443307997482
94.3590500710984
94.3491432574294
94.3565176537566
94.4069067819563
94.469428166331
94.5078223648835
94.5199228731348
94.507304652904
94.5304594004267
94.5923770208568
94.5991549866893
94.5811317059664
94.5827811881511
94.5729971723015
94.5718121728808
94.5720303876057
94.565391000525
94.5832840071218
94.5857925309961
94.562288376109
94.5758744008556
94.5851322085713
94.5629445631327
94.5431109683085
94.5374126619354
94.5924165857653
94.6351492451833
94.6079951897254
94.6200825217745
94.6865257653819
94.698306332545
94.6578660906376
94.6625610578701
94.6806237282841
94.6863725152243
94.718489514457
94.7358404451989
94.7150115211355
94.6919374134988
94.7150657708385
94.7317424054427
94.716220554862
94.7326918556491
94.7481242004084
94.7285416666068
94.7362879345426
94.7493901463725
94.7457406903688
94.7725009803918
94.7801648287631
94.7472604541075
94.7156594975866
94.7523702369653
94.8052457800763
94.7538212441266
94.6836309488946
94.7064462657865
94.7754603160799
94.7956090479321
94.7660110170139
94.7690843704899
94.8015508810561
94.7940367507822
94.7792845505608
94.7958475658128
94.8253937221
94.8503331140955
94.8694534496487
94.842088141189
94.833380020431
94.8565182494819
94.8564010292221
94.8674412245581
94.8781521957935
94.8670016951535
94.8596776070974
94.8610098623559
94.8392220571501
94.8541927429965
94.893566183124
94.9202985191497
94.9537052535505
94.9414968312552
94.901647243183
94.8803573235381
94.8600411124167
94.8545769907879
94.8880067819262
94.8914949217963
94.8752394831967
94.8808589310542
94.8598693342193
94.8478989982916
94.8848452580351
94.9107336572464
94.885339513691
94.846801719253
94.8383226338683
94.8080480761548
94.7613581202292
94.7697903805906
94.7928649909877
94.7823605197572
94.7413421045621
94.7560516231093
94.7923917556716
94.7713927405628
94.7952178142776
94.8179671057118
94.7916650298113
94.7831296069888
94.7828046130473
94.7861490166208
94.8151135702074
94.8171268641858
94.7824925834564
94.7803815736195
94.8045471243518
94.8314064033858
94.825961757721
94.8057331049653
94.8606545239859
94.9003554062319
94.9062454390268
94.8888946904693
94.8574204832445
94.8693148354714
94.8565365079909
94.8123654349272
94.8254000495331
94.9017700228095
94.931377360691
94.9059128205614
94.9267001300693
94.9687593917587
94.9512186972462
94.9507418727683
94.9552882812243
94.9424400053042
94.9452089183117
94.9848511879186
95.0643376836115
95.0248427556938
94.9703878714002
95.0409182899826
95.0772058294322
94.9958391637817
94.9752461561511
95.0284590483285
95.0120795373294
95.0340564578421
95.0329309228395
94.9857028405313
95.0376469566148
95.1147308258477
95.067909279909
95.0127297982495
95.0344175174919
95.059513455581
95.0467897329112
95.0460006950424
95.0246055925991
95.0099037686071
95.067566999015
95.0961732713634
95.0695234300053
95.0397203318255
95.015630840726
95.0169615575992
95.0899459757269
95.1810587858614
95.219148551084
95.168153081666
95.029995735762
94.9686201222838
95.050061215737
95.1237587508129
95.0809037777607
95.0436073143005
95.0905469007335
95.1851810684282
95.1773151885582
95.1028964032958
95.1211499871612
95.1563596317236
95.1237726056177
95.1195509328261
95.132655223122
95.1034287421454
95.0718823896663
95.0752101798248
95.1493735741118
95.1910712645806
95.1402112500302
95.1522073704584
95.1651146702437
95.1574283913151
95.2183639901999
95.313011690075
95.2900782011415
95.1833160391345
95.1691036289967
95.2410349218233
95.2336278367061
95.2290647851942
95.2627952713475
95.2252342986116
95.1706928781289
95.1831705882968
95.2333659838542
95.2870216498555
95.2880591637481
95.2051981183598
95.1259256053888
95.1371695208508
95.1600402618859
95.1995189454284
95.1975308154256
95.1838115875917
95.2518551158374
95.2722519562606
95.2485989207258
95.2502282677493
95.2541050060759
95.276689132645
95.2800537096332
95.1977297383586
95.1713221879183
95.211222962342
95.1707218361543
95.1639721281003
95.2167197880274
95.198597650088
95.1449514708779
95.1434199530729
95.1643028880474
95.2026795066841
95.2084316103335
95.1666200049599
95.1690298344985
95.1831055555903
95.1263902884499
95.1322129144052
95.1493222406622
95.1458364514345
95.1731121812373
95.1259044722553
95.0762097097696
95.1142429340862
95.1014063387136
95.0587812289409
95.0962169171736
95.1715305440221
95.215505847989
95.2230021213652
95.2129668421982
95.2297449711601
95.2814789575357
95.2497889628831
95.2752375273972
95.3740400744917
95.3718189705823
95.3773828871109
95.3577067934002
95.3467105073379
95.3638358915436
95.2904268835876
95.0897289412986
95.0013669292961
95.1427507942703
95.2513878057
95.2756851489665
95.3303671896586
95.336615744127
95.3198383058246
95.2547762854036
95.2465531623824
95.333029067367
95.2554834586888
94.9857414007651
94.8384053827045
94.9984952529105
95.1821818532857
95.1666323744999
95.136176801293
95.1884876695284
95.2212887078662
95.1674437506375
95.1709267216787
95.2526688303046
95.2914421003279
95.3322445103709
95.3268798527198
95.2611351012182
95.2508634911914
95.2451913315386
95.1973765466977
95.1338352115773
95.1266629292107
95.1542837083759
95.1689324993837
95.1603476425339
95.1786096455982
95.2640837242978
95.2923685286607
95.3081627294216
95.4354532877705
95.4592370938243
95.4256481946329
95.6050715935996
95.7753809488437
95.6986180498234
95.6867075632596
95.7849248820111
95.7477972960396
95.6631422094658
95.7027839136525
95.8393264852744
95.9018653196775
95.706912349454
95.6026678578165
95.6015793697988
95.6439308510639
95.6963400114432
95.7308211620439
95.8050548416116
95.8121317228163
95.7700441698524
95.8517041112884
95.8640965104719
95.8213646475935
96.0183551015039
96.1618171846938
96.1018398690675
96.0729808628349
96.1277340131406
96.1846453243701
96.0684213991713
96.0883324743487
96.1317527657795
96.1709147188648
96.352988687613
96.3684908554264
96.2636842517039
96.2322906398794
96.2878488066281
96.5189404274308
96.5652165528159
96.2913641372446
96.3252534519193
96.5528690588319
96.4941864392108
96.6536272769295
96.6133819629503
96.3737428227204
96.3121776095672
96.4880721005718
96.7499682825549
96.7881548733381
96.8513778577531
97.0126062313296
96.6027481057761
96.5284412343118
96.6352778429042
96.5912170374832
96.5595519560279
96.9240429645443
97.0818526546843
97.0986887033076
97.5959527562367
97.6764479415264
97.3795289767093
97.3262998099278
97.0258275152517
96.6593418413832
96.6944456610699
96.6522458284423
96.4755165845845
96.3942700773354
96.4096830752323
96.5110645001523
96.6380091372328
96.7760955431022
96.6787621559831
96.4327509928841
96.2233756010607
96.0954592655913
96.0437988683555
96.0730344536696
96.0787959704811
96.0337780393835
95.9485699433944
95.8692913545069
95.7624139479079
95.7171133691615
95.834813631493
95.9022892799204
95.7944000684022
95.7694047077855
95.9270172822169
96.1168761371962
96.1770542637852
96.0714497022598
95.9795700307635
95.9282529092352
95.901363744005
95.9797682388357
96.1273474191956
96.0953996883296
96.0229759632638
96.0615895480883
95.8985731921056
95.8334036059312
96.0212414143448
96.1667045193302
96.121030226797
95.9772811552703
96.0089762843207
96.270923738869
96.3670462270808
96.4268899446823
96.48665786506
96.493726522667
96.5055017093416
96.5999531213058
96.6999863289827
96.6484124786499
96.5942098914008
96.7775251501174
96.9782869758388
97.1654895539274
97.2863859639618
97.2680824199872
97.0593336982707
97.0415531796604
97.3550370043425
97.4034154699948
97.0958094367486
97.0760296067364
96.9808579343368
97.1258096424464
97.3603853791956
97.0729187313141
96.9635908539829
97.3684094856578
97.4831137616556
97.1883581813638
96.8894223381421
96.7591976477367
96.7974820906057
96.8726099545429
96.783012340206
96.7026754601353
96.8627386270248
97.1261870634862
97.0772013625856
96.9894123879676
96.8071325499124
96.7605011083005
97.0550913961471
97.0878201183818
97.0108125668234
97.0150419694111
96.774914652743
96.5527520417159
97.0209631417887
97.6136410314557
97.4071496473986
97.385131215538
97.2709697866622
96.8792592439127
96.7018175601608
96.7205392350158
96.703486818571
96.6278345090527
96.4374165953949
96.5094984925067
96.5686501448584
96.5622371689508
96.4919414882348
96.44803423743
96.4295995914065
96.3495879773492
96.2819705657184
96.3455884521492
96.4093470276765
96.4206899920239
96.4581781656769
96.5008497397723
96.515858237168
96.5262927636128
96.4514496783022
96.4505968827578
96.5747124020227
96.6247330713035
96.5952154793072
96.5543513277937
96.5173761731873
96.659278297747
96.7005414897951
96.6603936187562
96.6913192883645
96.6721591697781
96.6517379255612
96.7208997346244
96.7357589802284
96.7300404937934
96.7550199034415
96.7340233525759
96.6930056587752
96.7815738373769
96.8462890368601
96.8393261118584
96.8777188590843
96.9459410724903
96.9116971886312
96.878816521983
96.841112154286
96.8506890438784
96.8362140807062
96.844880548791
96.8929369597769
96.9376479586793
96.8656528889191
96.8276339577354
96.9164689105848
96.9674383009113
96.9175323780008
96.9053641648699
96.9171013756213
96.9067987554685
96.9033302979112
96.9538423670617
96.9182163254342
96.861549582439
96.8187806332142
96.7102505069681
96.5946574913544
96.7332463690103
96.7781229618886
96.7072992365586
96.6505179122701
96.6363615578873
96.5686009273048
96.5060095162676
96.4943678713045
96.5508200673802
96.5007560986635
96.5273274304485
96.5087621729512
96.4998534578553
96.516194664657
96.5541556561155
96.5812413641453
96.5394902333259
96.4985506347449
96.5320801391558
96.5276137694457
96.5356493639317
96.5361581216879
96.5753002367393
96.6361625530174
96.6630892558948
96.6628052564436
96.658306837225
96.6030240148351
96.770982476379
96.8462460362911
96.807442683404
96.7474968914212
96.7916124669385
96.8006745004988
96.8606049474384
96.8685576513748
96.8410609169015
96.7732001120041
96.7637342714129
96.8317166293614
96.7996978330575
96.7910004195509
96.7597754476724
96.6665226540593
96.6193734301626
96.5379909966758
96.3767132168652
96.2333903310904
95.9996713725612
95.5615814704469
94.952859809927
94.0491974154947
92.9331190974643
91.4108696862786
89.7308848352575
87.7700396060192
85.5713998126141
83.9085810788293
81.8886890425534
79.5017856248594
77.6240722770275
75.6204462194984
73.7751893641065
72.0049245867816
70.0846444419927
68.3064165764967
66.683482706649
64.6050403786655
62.8286294673807
61.8010382693912
61.2816795405323
61.2418289914958
61.5965542380827
62.3905112098705
63.8571773958142
64.9663292533209
65.9420126469702
68.7291456089198
70.2502052017042
72.0489686410048
74.0057865327107
74.5831925840137
75.1728187624981
75.9876875772095
75.8701139107008
76.3129551478469
78.9421531784271
79.7376836416139
79.8863216666047
79.7659856486236
80.549527800394
81.8503711758443
81.894132475175
82.4998734651617
84.0399523628838
84.3969053579305
84.1370245605155
84.9330872830003
86.0027102083114
86.2859471009925
85.8070142572924
84.4405940335481
86.2500789519667
88.8339051386725
88.1517118537859
87.4190855953044
88.6210007820332
89.2634801504251
89.0780660431852
88.8166837526501
88.33414551436
88.3665764175436
89.8810781274638
90.3299209960876
89.9582459286806
89.7933949896498
90.0672867147775
90.0932256085706
90.3321435582339
90.8303327070973
90.5482643115482
89.9975816923189
90.4157867428268
90.734963469994
90.5089358471628
90.4489673499376
90.7152492587976
91.0707151456454
91.2710053328239
91.5021440639973
91.7690041292087
91.9822590214549
92.0663800611706
92.1971627217203
92.3552452993088
92.4234866413479
92.4174524319645
92.3963203743149
92.2078864767377
91.9003413839912
91.4254193350968
90.8196006723302
90.0967977759283
90.0917725405448
91.2814909147061
91.6785231173586
91.5020983355311
92.0190190011767
92.6620319799485
92.802262050556
92.8811445286359
92.403120325923
91.658553117095
93.2644665134249
93.9593197684988
93.7702487619512
93.673647759619
93.612460674942
93.7817334291395
93.6905622670251
93.5278926451683
93.4608316220778
93.4149090664495
94.1615249156733
94.6459875031712
94.259845867808
93.8783678831819
94.1541857243384
94.1820073280079
93.9474203169324
93.863946037117
93.9096301949936
93.7423841969115
94.1103656817287
94.3318202959206
94.2882637413245
94.485669743189
94.3225615914038
93.8034829454001
92.8539386175343
91.1283118578656
90.0553900922126
90.3399194979472
90.8826950472955
91.6558086885511
92.6149427550433
93.7259600207252
94.4359981831108
94.4331210654522
94.2029154490077
94.304886339877
94.3911835740703
94.25900392784
93.9151499616195
93.5200665551279
93.1954224156072
92.7443092976933
92.1899751801888
91.5211022076615
91.0600537008633
91.2367047980968
91.3878124466686
91.4611970540117
91.6855649779919
91.9189946073906
91.600442805298
90.9879900499253
90.7715221836231
91.3133223452902
91.2717012850034
91.091648718438
91.0156548724623
91.1696274994327
91.5084993267345
91.6623122432275
91.752963826449
91.8239957884098
91.7399268289216
92.0259062026778
92.8372347791235
93.1924659754243
93.4310584766647
93.8614684684882
94.2448845085083
94.3445081287863
94.3625948418974
94.2693756080293
93.7804566037031
92.8175539963176
91.1987370278726
88.7608770609874
85.7786265870751
83.0598565194947
81.6541511945426
81.6947973723603
83.1688634526112
85.1918843385209
86.6330765513402
87.8692003020669
89.0980021348526
89.8355059165312
90.5686882249752
91.0106492551341
91.0362074299504
90.9750161793981
91.1341180392756
91.2810509917827
91.2938318884964
91.3267968361493
91.3412132102303
91.2893740111557
91.1169638815785
91.0256246602094
90.9593932636491
90.9004939294246
91.1322472060665
91.5688545552623
92.0062535232633
92.6085847007229
93.1336988382571
93.3295841214044
93.3338615166695
93.2172329402207
92.885794412593
92.1724011151632
90.9305327141918
89.0189315582805
86.4083064820363
83.5038009935136
81.0379730494554
79.8015946737109
80.4326989108468
82.4442297083278
85.0806822836271
87.7475311748446
89.9524725161915
91.4163167903158
92.2416499792388
92.6369917987956
92.759032442777
92.6736815706645
92.4858872310908
92.2764369543024
91.995437292973
91.6360107558087
91.2255996739374
90.7699418736965
90.2798995749531
89.8135874733297
89.3582459814173
88.8178706351578
88.1152940484062
87.2457566044644
86.2573185807928
85.183126133247
84.0927526917403
83.0393938502721
81.9993658700974
80.9729609224541
79.978241389199
78.9644770538224
77.9407187927544
76.9244349599673
75.9081672711524
74.8868570675956
73.8869212951366
72.8841179104221
71.8118157095336
70.6847013986991
69.5339401077956
68.42464706404
67.4066422702414
66.4877172280113
65.7191737544604
65.0949200487093
64.532187972821
63.9550996830427
63.3261254149021
62.6440728552948
61.9225889020308
61.2006610260213
60.5361527789738
59.958478749183
59.5454896448939
59.3375290526607
59.3564865650407
59.5816448154122
60.0231274079286
60.6508413982293
61.3702788333866
62.1122631881216
62.8647729371092
63.6009627175883
64.3494462297517
65.1697273215418
66.1325148610175
67.2035454711209
68.2815068493788
69.3403893929824
70.3969116793547
71.4112989484916
72.3890946783471
73.3665017157472
74.3478729163979
75.3232490007822
76.3050898669597
77.2710002261987
78.2247628740206
79.1625310219833
80.0560917289402
80.8686884258468
81.6040306202821
82.2488678659536
82.77129750563
83.1498063960346
83.3766511139087
83.4656081074845
83.504918224068
83.583046893279
83.794866446466
84.2337056693894
84.9497511713304
85.8034471176762
86.5855190467818
87.1801830819309
87.6175419261204
87.9243071335971
88.1160424680835
88.1944696990732
88.1584211441618
87.9912707940482
87.6880927218104
87.2719828621249
86.7542203232299
86.108257277746
85.3030991609063
84.2823745988394
83.0252897694441
81.5300616898723
79.7843542495206
77.8288328092567
75.8073344497227
73.9032482238276
72.260583944069
70.8758518904581
69.7240801363798
68.7512378381472
67.9225368201768
67.2762255299402
66.8918164531335
66.8033151594841
66.8981215390005
66.9665343567856
66.8680464435802
66.4952579109037
65.8067406547667
64.8954587214699
63.939326690861
63.0257900731255
62.2077160256253
61.5458217333084
61.0520619058488
60.7234717811035
60.5650539610347
60.538250917419
60.5890099575749
60.7073557050345
60.895392275595
61.1964182935814
61.6413451042179
62.2434175023026
63.0149898897263
63.9023828817921
64.8737855741579
65.8592542197716
66.8224452695083
67.7524729226028
68.6586112212829
69.5215786153687
70.3463875541164
71.1258907147518
71.8196284672717
72.3841233983419
72.8379609672825
73.1751430074479
73.3880057063978
73.5012975677348
73.557823142045
73.6139761209775
73.7123594777618
73.9089854794606
74.2164959917761
74.6361091923436
75.1805073338745
75.7995809786268
76.5095849921132
77.2480079026263
77.5723999131835
76.631512108927
74.2108794074324
71.3785651996183
68.9386525889186
66.7141232721615
64.9783425245502
64.5806503107818
65.7402428089586
67.6473878481258
69.4461528219151
70.9308465266911
72.1410423462287
73.1146343333851
73.9158616525906
74.5735684838446
75.1557140947034
75.6894211077594
76.1290053438595
76.4790156092688
76.7531088063731
76.9412387246449
77.1111374976853
77.2905593084717
77.46957765061
77.5615096657466
77.4508934227079
77.1050616932403
76.5316974118359
75.8182957694529
75.153877619978
74.7429927752474
74.6912464506253
74.9287393401527
75.3536524438632
75.8611995551259
76.3874069850012
76.9088884227769
77.4293284707226
77.8987819400915
78.3007672601435
78.6709965103946
79.0181968120257
79.3392382487841
79.6283968558358
79.8838017427131
80.1374920021605
80.3652186281349
80.5779780601475
80.8001536800641
81.0019275977248
81.1851704183861
81.3619471745208
81.5464880882336
81.7436788663698
81.925092311532
82.0963401264938
82.3279945185568
82.545051406948
82.6920526680277
82.8277591030326
82.9671929752035
83.0366506231802
83.0147974288306
82.9617210030517
82.8308075656374
82.5907017675181
82.3607159183949
82.1657049762571
82.0168223714688
81.9659888017993
82.0032113639665
82.1278572595755
82.3000042162762
82.4828079673803
82.6014223154761
82.6145970416024
82.4191905094161
81.9944274104389
81.333588726203
80.3862138254949
79.1802225354679
77.4792077389215
74.8627992381919
72.2502373948203
71.8792138081906
73.5513619853922
75.3300841911916
76.5643334495108
77.3765630788243
77.8941589416105
78.222812853248
78.382262526602
78.3801023884162
78.2585937977248
77.9559930938358
77.4276690622775
76.954003759488
76.7282939861902
76.8394372538473
77.2300180338125
77.6669267378434
78.1061508149817
78.6108389155171
79.1418025239298
79.6388310447638
80.0786753162014
80.4471478170937
80.7806988067584
81.1193649361279
81.4837890265645
81.7965260033989
82.0095839486605
82.1709110614913
82.3426110383671
82.4888577985533
82.6181672809812
82.7732737025513
82.911189769753
82.9713796620357
83.0593740290875
83.2037721418366
83.4645908642431
83.6512096653452
83.424028764741
82.5717466672399
81.5616099868394
81.2024785920127
81.5382416290925
82.1399667839185
82.8707536044817
83.4972644103856
83.9653701591117
84.442912123234
84.894611792809
85.3320581638984
85.7556311498957
86.1436675319724
86.5008860929426
86.9409979548454
87.4400782287308
87.9255400799211
88.3184474409423
88.6990714084441
89.0880181799145
89.5058876365939
89.9389580361316
90.347152503044
90.7746889038656
91.1997122933452
91.5816476333237
91.7745881407619
91.7751436911038
91.4574981181807
90.4078366809089
88.31761964984
85.1843640567127
81.4347146718763
77.4171691827185
73.4837712467709
69.6987002028467
65.725322068515
61.6852153662037
58.1981962969577
56.1277731831174
55.6346558082712
56.2013950046353
57.3671633361243
58.7847713920073
60.165929825149
61.4173009376616
62.4754612884357
63.4700755169155
64.4791732174852
65.3557237520929
66.0757929258597
67.1587520662457
68.3953285210563
69.483411999256
70.442900070408
71.2626027707486
72.0239733464417
72.7935802388626
73.217640016662
73.4743249965013
73.8829916910533
74.3112475153591
74.5297017848382
74.6286520742235
75.0270220620541
75.4218434808818
75.8183555925214
76.0569332461862
76.5574552233092
77.5241105319186
77.3700009936939
77.1773810987638
77.4875723750874
77.9277435455935
78.2530258062642
78.3977143627459
78.5148581397295
78.7576581317454
78.6127121346636
