1798
3999.43349933624
650.420452594757
1
128
4
96.5840076282113
96.4998856079092
96.5010711818883
96.5284683043069
96.5258733727233
96.5582515984318
96.5912421743613
96.5526034215878
96.5468511554561
96.5009940593542
96.4828182906548
96.5080249565201
96.5612189225147
96.6214825872221
96.6878376186126
96.6216315190517
96.5329168346122
96.5643072069625
96.6209177914948
96.5819243342081
96.6343993137449
96.6335923006743
96.5939676248521
96.5871987092985
96.5810481559753
96.4888397741893
96.5207172009554
96.6016111254424
96.6128144632938
96.5669239751029
96.5595881105344
96.6411116745292
96.6825125353141
96.6688787137152
96.6643136076802
96.5378511083968
96.5690836214425
96.628626868305
96.6521116569999
96.5817162955353
96.570204542998
96.5940977304103
96.4751249878706
96.3922036648702
96.4706512389594
96.6533282102199
96.7767824913558
96.7680551512177
96.691897040036
96.5610074128954
96.403653418793
96.3444709122565
96.4397033522966
96.6191630193331
96.807231745964
96.8338300328705
96.7244262314376
96.6399018006217
96.6883374093947
96.6529980491377
96.5073515815842
96.535218512827
96.5952781250234
96.5787988210008
96.6944861784248
96.7774048545132
96.6886810044887
96.5066429685006
96.5069136651854
96.5336613575035
96.6071415452157
96.5070741541843
96.5621138822879
96.6895987802643
96.7763887939723
96.7391942537345
96.5127937832461
96.1775974768736
96.2734937319291
96.6714244512497
96.8660527094719
96.8871719062213
96.7188099467695
96.5807219247689
96.5247837450072
96.459712536242
96.5883969749281
96.7236472207126
96.7252321107718
96.7517760291744
96.787427993624
96.765323338076
96.7532500738039
96.7289085543818
96.5294475288789
96.4882362751538
96.664535352522
96.6038179684018
96.6015847274247
96.843691701752
96.8132663284788
96.6864161396779
96.6546424135899
96.6562975470191
96.6180358975855
96.5266544157278
96.6377621037796
96.7171518982874
96.6851132459648
96.8304222863759
96.8579141107579
96.7871340414142
96.7426645167265
96.6680009334921
96.6624791853242
96.6993211713466
96.64221355237
96.498565382402
96.5786666743859
96.7196448193176
96.6709025916737
96.6150729007425
96.6036827560926
96.5648389455476
96.6232927094243
96.7572073414644
96.8085976973523
96.7022817758707
96.5563065351817
96.5607643602277
96.6375562422366
96.54949835401
96.3022477902837
96.5012631844179
96.7193554986332
96.6284982300903
96.4822380101223
96.8858823870161
97.0192481911015
96.8633208671913
96.6383504201891
96.4927035272966
96.6543378962265
96.8252702446844
97.0042421214749
96.8972429317592
96.7633087731973
96.7296302098209
96.6767078505405
96.7270509674285
96.8577674859149
96.9252615435215
96.8106720559302
96.5065820864428
96.4372297741277
96.7179539366788
96.9638591517046
96.9422319265889
96.8411035873729
96.7743855604682
96.7131566074377
96.6990896265364
96.8047887503816
96.8832257066867
96.7302185996218
96.4955182555384
96.5225194667369
96.6105670842963
96.7331926799307
96.8383074553697
96.8359725840316
96.6131602823544
96.4965699331343
96.5366152122231
96.7995760376861
96.8106875080472
96.6047920930901
96.7171394607874
96.819616016807
96.7848535371801
96.7207370013277
96.6205510505976
96.6102822968154
96.6125129992522
96.5825771009155
96.5257819523795
96.3195218560991
96.3412303883574
96.5525829770773
96.7011465604258
96.7400328244388
96.6341696758232
96.6740459384969
96.6968413940292
96.6108836000011
96.5818053325205
96.5717111152683
96.460549403792
96.3165568799446
96.5933457686188
96.7847357583133
96.6959793786435
96.5277881233628
96.3578732817276
96.4491618787099
96.6281147747814
96.6154616363361
96.5896377710241
96.5485740231933
96.490204471418
96.6958693187192
96.8445928776139
96.7577764045026
96.6577674462486
96.6822470355258
96.6500733787849
96.6248124553529
96.7051124560381
96.7085489497171
96.5871514276593
96.5668370191687
96.7033642194959
96.6840494951577
96.6384977552317
96.7001084218289
96.7317589477151
96.7430383099017
96.7393771409149
96.827796109589
96.824172471939
96.6599203014183
96.5045005609472
96.614529947769
96.7976344963848
96.8607516907812
96.7632960549572
96.7854732459018
96.8071466137028
96.6707051142488
96.5548418954312
96.5555571299287
96.5638783591128
96.6172867100506
96.6746984867553
96.6939362974685
96.7150717189693
96.7178720750853
96.6392340282039
96.5850094601103
96.6252435471477
96.65301465394
96.638856858107
96.6815721748289
96.6421677071622
96.6305190991284
96.7791161648365
96.8558184282242
96.7525567160773
96.6793401561828
96.68183424225
96.7995864142442
96.83180246103
96.8061275893079
96.8627774470159
96.80033314101
96.6846363777077
96.7249647350715
96.8249088001228
96.9241552789515
96.7945808661269
96.6632767457923
96.741787759563
96.8321268644922
96.777567421093
96.7991314909363
96.8815189008792
96.8569779783614
96.7734827772704
96.882690798649
96.9196648228217
96.8088966141683
96.8310786287713
96.8837166034806
96.7417684918012
96.6976041101859
96.8418337156978
96.9517588406469
96.783692782327
96.6877770950847
96.7918370680208
96.8385962662674
96.8409368423163
96.792699702276
96.7467871070898
96.6835782790817
96.5730846470551
96.5944859586325
96.6341425943025
96.5739248235819
96.5007182113006
96.492381551898
96.5029721089837
96.5053495941325
96.4872269705741
96.4012622209884
96.337186475218
96.4022325816234
96.4758430000032
96.4947455321494
96.4729677868566
96.438000947241
96.3809471185777
96.4037825775216
96.5069495755563
96.6158429444207
96.5857948005496
96.6060911921961
96.7760920749785
96.7729869040079
96.6566348621325
96.6441965100643
96.6613347809189
96.7396856974208
96.7868839669869
96.8071960447068
96.81983698477
96.8785342364644
96.9062645528175
96.8602846714951
96.796263580612
96.7899037280738
96.8137162072268
96.8248138612567
96.853238936062
96.9087984980661
96.8651782831515
96.7202578084193
96.7088504380188
96.7850787945123
96.7303789037151
96.7142120908567
96.817779782905
96.9274950547574
96.8975578226831
96.7902767057432
96.7522236347188
96.8056826026063
96.8128534498823
96.7570811976393
96.7109361764732
96.7525578648919
96.827624717386
96.8278301155372
96.8249126127926
96.8167423841537
96.7651014947109
96.7726963582211
96.8310201638981
96.8382290790839
96.7408542280124
96.7153561764879
96.7908273145557
96.8441540571564
96.8247289215657
96.8104310650791
96.8205573183161
96.8251170498047
96.7910871345254
96.7903172328698
96.7924202445176
96.7496137273041
96.7507877380466
96.8399850943387
96.9207887675796
96.9468747978706
96.9062416499074
96.827140757499
96.7793510021239
96.8145362256021
96.8623999893776
96.8989520426014
96.8570789396997
96.8094851592331
96.810717930285
96.8183728699726
96.846544076567
96.8990739483194
96.9106202394006
96.8821682071018
96.8305846991709
96.7737049031288
96.7712834086051
96.8706057515731
96.9119464362428
96.9163476843504
96.9269315141658
96.8862980527624
96.8542722147816
96.8801184614879
96.8820389141026
96.8890976894944
96.8533552280264
96.8158629279195
96.8854013158785
96.935672635905
96.9068552236277
96.8563563215403
96.8407890769587
96.8577162653337
96.8002336779419
96.7964657502926
96.860839215195
96.8606053881882
96.8161725246512
96.8762590473684
96.937714028323
96.9057846515813
96.8571377034164
96.8758438887748
96.9146404099756
96.8906873645488
96.9145033493825
96.9537011107527
96.8548639246676
96.8207905250549
96.7852456643577
96.8121215989146
96.9341574910758
96.9104737205651
96.8690945469351
96.9026070775689
96.8684601440764
96.8111558231796
96.8648536189926
96.9046895068705
96.8774272390509
96.9166704553066
96.8947892995271
96.8203238436759
96.8293720196758
96.8807510157569
96.9063128554285
96.8763613030737
96.7986508096364
96.8031526613468
96.8568793845946
96.900139331234
96.9170865532975
96.9438945239424
96.9059822736456
96.8262585616093
96.8237323504306
96.8792790229693
96.9178302742516
96.9025076991848
96.8735886189321
96.9081442095336
96.9423232152719
96.8862595689948
96.7914492096677
96.7717634297668
96.7907846455169
96.7930948535175
96.7785779639973
96.7895190280009
96.7985368028845
96.806634656601
96.8010684806538
96.8210354036328
96.7996555449577
96.7139247180944
96.6913867323669
96.7451310602865
96.7587783845622
96.7199232387845
96.7021088772813
96.7008716872064
96.7051689891469
96.7333888671605
96.6983549936953
96.6209333758911
96.5922356633275
96.6407601093893
96.6354677772965
96.5712007552744
96.5908294777248
96.6456765993718
96.6579294106119
96.65601481688
96.5802102445928
96.4834321014766
96.4686880688102
96.5287753523544
96.4942890257409
96.4091276021907
96.4551379595264
96.5853070685391
96.6159440947583
96.5176446824085
96.4352186132859
96.4583172119445
96.497698306069
96.4986764735215
96.4822523877587
96.4820740494607
96.4868089895417
96.4682437253334
96.3921854208092
96.3588625765098
96.407734146301
96.4850894743137
96.5591469020616
96.6262818128699
96.6391790848674
96.6642793708796
96.7184490905068
96.7371602038278
96.7790706052544
96.8130082859146
96.7699348309904
96.7328119151738
96.735696002385
96.7536185695219
96.7247180651573
96.6607201048765
96.5611563229493
96.5266205236864
96.5500452090739
96.4819539637255
96.403349175603
96.3931165705155
96.3606018299797
96.2874768239002
96.2266511058822
96.2015585469351
96.1335030640624
96.0822322898116
96.0904323027553
96.1066653493944
96.1137251345018
96.1139123860438
96.0401454586714
95.940461570563
95.9102556823867
95.8296115481036
95.7247287759494
95.625864318499
95.4842450871579
95.3976685437774
95.3218525277649
95.2039639682992
95.0630829657768
94.9248308452218
94.8587252160824
94.8248576829842
94.7895285918531
94.7948789696387
94.8360205353422
94.9202737444027
94.9663832288152
95.0277618889745
95.1752199133191
95.2941991818519
95.3799464740708
95.5210043227129
95.6460259722405
95.7618715366602
95.8484191252886
95.9446187103874
96.0705937207944
96.1326696637668
96.213087313414
96.3054323929565
96.3197493331503
96.3317895441433
96.3256897608153
96.3004709465412
96.2820264775593
96.2802911345746
96.2716931621189
96.215728493475
96.1675345737648
96.1376836373332
96.0650872394083
95.989372823482
95.9276627762587
95.8859178427156
95.8643565703443
95.9035036869067
95.990463264089
96.026918928717
96.0480480037298
96.116320592351
96.1358140183217
96.1042855262465
96.137236349823
96.1693057353655
96.1825357676531
96.2096309551021
96.1549017996865
96.1480114644861
96.2072425349661
96.2150153723109
96.2453055741667
96.3251811469737
96.3426339532177
96.2972142148457
96.2856976908472
96.3453637306921
96.4023474882243
96.4250778214159
96.4176205420542
96.4306018160479
96.4858220028907
96.4865287352798
96.4389548624604
96.4595367642512
96.5312149028209
96.5548675910486
96.5442776644966
96.5664796370162
96.6098756394713
96.6297239723705
96.6229052752122
96.6586572923879
96.7154341014413
96.7051860003794
96.6880398555668
96.7285461344991
96.7569723908344
96.7739543574544
96.7720030003554
96.7669616372848
96.7693843038834
96.7792220353807
96.7830086865627
96.7617771778191
96.7382707599379
96.7516181104905
96.7726830409246
96.7342464904182
96.7037755279694
96.7445788968849
96.7618807324195
96.757400357097
96.7782751488394
96.7814017901405
96.7723565680604
96.8034245001389
96.8242475219922
96.834403209733
96.8305043751171
96.8357001772714
96.8665045160924
96.8889540893479
96.8944071217595
96.9038659048063
96.8974698174388
96.9062227022788
96.9102754595527
96.8808011585477
96.8871976053363
96.8817885635044
96.8652071204966
96.8987385146731
96.913745925816
96.8959495011631
96.922659686225
96.9633411020751
96.9649168991219
96.9612776737592
96.959367196988
96.9599250771476
96.9219267516381
96.8843392625201
96.9010416213511
96.9301796825564
96.9504042996385
96.9527144620883
96.9477367094129
96.9548232039236
96.9386885251511
96.9603044632429
96.9932068737336
97.0037916192677
97.0274365044726
97.047418641676
97.0208846962383
97.0096315836384
97.0744306810222
97.12182837857
97.0955805342965
97.0495825736451
97.0236816034909
97.021172530424
97.0474985425573
97.0613973811655
97.0573259002051
97.0650869575186
97.0796460901037
97.0974457141557
97.1008946415787
97.0953038661029
97.080788997607
97.059187333646
97.0632737690192
97.0890708819365
97.0773745422509
97.0515514455561
97.0467184001375
97.0464806941378
97.0795523125102
97.1266915873551
97.1167400335116
97.083245113189
97.0591529188476
97.060073226821
97.0619649037244
97.0327800733923
97.0077553305894
96.9950445283183
96.9736334909314
96.9965962293092
97.0307284043462
97.0184831820982
96.988502408935
97.021375148449
97.0376172759279
97.0085858617101
97.0424035322421
97.1015515251532
97.0592325657689
96.9873414340303
96.9976347121087
97.0031881131446
96.9691611776277
96.9949339618514
97.0373093268487
97.0228595018138
97.03801075448
97.1110019463252
97.1207644929193
97.1151833771696
97.1099519449201
97.1009230255408
97.0924910554016
97.0621130805754
97.0475054546948
97.0962049889889
97.1959863809546
97.1821392902256
97.1043417208304
97.1347021884707
97.1542180934499
97.1242944556446
97.16501868734
97.182022508221
97.1337849462684
97.1051235131683
97.1599104592091
97.2172005291613
97.1854843258139
97.1917584326973
97.2521541634545
97.2525347177657
97.2101456828766
97.2282917337743
97.290153837074
97.2523111556923
97.2260519797888
97.2182273827153
97.2010225946488
97.2107453097203
97.2534623201398
97.3086052110301
97.2804968168465
97.2346950826575
97.2715180773947
97.3097484078452
97.279067184349
97.2677679770644
97.2788300314694
97.3151126968187
97.3413820302778
97.2797115746151
97.1994457594118
97.1965539007064
97.2448307967035
97.2925264075023
97.3405437780437
97.3865066759275
97.3680830489328
97.2548618608902
97.2057042138158
97.2806320189331
97.3553377364994
97.4040443595551
97.3811901611151
97.3392045000561
97.3713945069441
97.34862838631
97.2913780400435
97.3238956823414
97.3617181197629
97.3740598056923
97.4074019101497
97.4102501748265
97.3610095109835
97.3434983574644
97.3509272678896
97.3685563257156
97.3739436685296
97.3696804673737
97.4190781458811
97.4285708910256
97.4027310834682
97.4683443986258
97.4895456278951
97.4684823233594
97.5337258535138
97.5229672750009
97.4940068910989
97.4997314780781
97.4513938826038
97.4011335212353
97.4018017487513
97.4278306671233
97.4407676412006
97.5244486166107
97.5970266639207
97.5210443519255
97.3676666350016
97.3594385604577
97.4343836089003
97.4522526828552
97.4413503958488
97.3950868531535
97.416098911788
97.4845235903914
97.4419226617914
97.4430207425125
97.5059835480666
97.4784355928491
97.4753653270128
97.5226811429488
97.4602278204347
97.4124356193798
97.4487914375783
97.4000219464482
97.4159994319733
97.5168541229577
97.5047882169849
97.4198748807138
97.372973620247
97.3863185077274
97.4329075244088
97.4173319951634
97.3483654725439
97.4040592816497
97.4764940639116
97.4049922276349
97.3652462236725
97.345069716512
97.3235180599605
97.3859146200051
97.379482499517
97.3548289636462
97.3383907378275
97.2874823602302
97.2866083720974
97.3369681073773
97.4154185539662
97.5023215926634
97.5123682745184
97.4191410362822
97.3734587825221
97.4790884852978
97.5637844642044
97.5628089128398
97.5203547919576
97.4873247430744
97.5105342614646
97.4801402127097
97.4667993222195
97.4718362883646
97.4478379219233
97.3712439766527
97.3276772261886
97.3994052463582
97.441339103553
97.4126303639058
97.4146868847845
97.4278412412069
97.4463648613542
97.4684329145968
97.5049326700601
97.5294304999653
97.4434749446188
97.2768479551513
97.1525957819253
97.2017732947987
97.3302420131197
97.3947223777312
97.3641166067682
97.3700223199202
97.4533440650303
97.4588471145122
97.4127430126515
97.4313763516508
97.4582741676079
97.4980536808434
97.5248330512728
97.4953237250334
97.5096997878657
97.49365399745
97.412263904201
97.3706782222119
97.3138488557687
97.332648607275
97.3733517994189
97.3518678764798
97.4411457828663
97.5675513281824
97.4986987661822
97.5094294667155
97.7120243803916
97.7630181428377
97.7721768617933
97.8377363528264
97.8511645401174
97.7885419708419
97.8201094316622
97.8854575197765
97.7522440017464
97.6761678832169
97.8805552518745
97.9939518423632
97.9375726827863
97.9270127181097
97.9068517933994
97.871626947663
97.9352984554067
97.9968033265957
97.9523410671724
97.9776568143776
98.0905421299583
98.0891786528875
98.0618263851793
98.1084222941987
98.0576948382243
97.967789674075
97.9757908910344
98.1389886958919
98.166599341123
98.2004768399872
98.3222259885548
98.1647190170375
98.0317637565275
98.137796462246
98.2723081608451
98.4115324863707
98.3363207783199
98.1489553842224
98.0234291846073
98.0484274326686
98.3653923859204
98.5162025941318
98.3746523218775
98.4666217779379
98.8167568700257
98.6098906308894
98.4388438566958
98.56076791583
98.7203043487502
98.7350150032483
98.596288506121
98.7102183744294
98.631274120974
98.6686787257216
99.0272357464131
98.6602634165805
98.517543699101
98.6981358927804
98.6651661657951
98.7002218253422
98.8928975425409
98.8771969306533
98.7818831904652
99.2472783638029
99.4866195784974
99.1002214771952
98.8071684289661
98.6159882717694
98.6045551047025
98.7917150374326
98.6914894381814
98.4083775580389
98.4669377341292
98.6549862468935
98.5805288660803
98.4053173680086
98.4486893334582
98.4680682148121
98.4077338827997
98.2893026826953
98.1332344666297
98.0337274211451
98.007130302098
97.9948638554081
98.012396419375
98.0371924346705
98.0799458154783
98.0101109166176
97.8674384691238
97.9483447925247
98.0560127139021
97.8417197184377
97.7571328625013
97.9632446697439
98.071670063225
98.0745058845289
98.0732416974938
98.1505871443775
98.1428947000959
98.0723247517255
98.0979175048185
98.086528851472
98.0416352219405
98.0865906376237
98.056475264957
97.7979232244257
97.8029422184128
98.0765756869451
98.1784316337164
98.2024108282385
98.1958138762318
98.2541803460551
98.3593352849538
98.3291153784255
98.4489595695529
98.4376472376214
98.4041591025076
98.5291280180669
98.5306805319308
98.4494247551087
98.470281956654
98.6552715826835
98.763022599018
98.7976745618733
98.9247929197436
98.9725962678193
99.0424874957487
99.1555739371894
99.1344271601561
99.0951749197899
99.0206288859439
98.8416252093869
98.7928674950682
98.6163289637259
98.7192782000059
99.170669374986
99.0870267343663
98.8001608334789
98.9532204633986
99.1599365163613
99.0296820507701
98.7113952243519
98.6346104644338
98.6356247545245
98.5679279094702
98.6643617591387
98.6442677787891
98.6420782600349
98.847792567797
98.8663889133294
98.8202585704674
98.7638275376021
98.6825124710437
98.7704751868995
98.8001251320378
98.67382873501
98.7861967325089
98.7423427818007
98.327647708393
98.4354120696626
98.9662602333963
98.9334159604439
98.869354562223
98.733009387777
98.3555740909384
98.3585166074465
98.51086133572
98.5657244537394
98.5890354981102
98.5636925235873
98.5087238310211
98.3389557818711
98.315643655451
98.3838969980643
98.3816486956776
98.3057240508132
98.1916756903956
98.325790366247
98.451011053038
98.3274930802428
98.1767544045682
98.1780737608607
98.2540676973171
98.3167518110439
98.3443406567395
98.332612042985
98.312137533005
98.3412668500357
98.4233718114835
98.4193563954131
98.4631130343181
98.457553103598
98.4224437586836
98.4377453369058
98.4303064605607
98.444475597393
98.4112860584935
98.4389270781502
98.5198316676146
98.5501865112827
98.5300803111068
98.5176935753474
98.4656004094784
98.4835583876
98.5803227574443
98.5443670427658
98.5681191095482
98.602230800523
98.6108203829479
98.5733684413422
98.5215074973054
98.510417322162
98.5451178427368
98.5629911201266
98.5934911017625
98.6015380457012
98.6729274986908
98.661152415204
98.4990071083993
98.4375000087975
98.4582841519078
98.5108815157761
98.5945085623295
98.5999149252123
98.5558174248497
98.5521372659966
98.5425040115216
98.4759474683024
98.4608705230294
98.4939155923059
98.4929067091102
98.3278172628876
98.3014009784482
98.2964875326911
98.3039569792775
98.268414136707
98.2221382145154
98.2363851021934
98.2673701984457
98.1540814760503
98.1189169913977
98.1127146960044
98.0953666877345
98.0332259223878
98.0790894980702
98.1607171148524
98.1741162037892
98.1851824061379
98.1504923286704
98.0722115670546
98.1101070971531
98.1376796282507
98.1231879568081
98.0960187953471
98.1044767652306
98.136751013404
98.1527584842426
98.1400780564314
98.1763768764329
98.0974630477541
98.123147318354
98.1788398431937
98.1648349739786
98.1020352815451
98.1665884830123
98.1501639347741
98.1629554738447
98.1936541094457
98.2321126031906
98.2423384409431
98.0882052428964
98.0117264693567
97.9393812347001
97.952608365926
97.9848746878793
97.9336931045542
97.8329746338823
97.7492442458943
97.5775473838863
97.4908872443086
97.4247555241105
97.1930437854104
96.7369742877758
96.0549333872777
95.2641310192775
94.2475071993896
93.1942561197441
91.9483190746475
90.3524686813852
89.2207753820067
88.261277250585
86.6797764461975
85.0083300188098
83.6192050985823
82.3594916769731
81.2767399920964
80.1204099911949
78.8836583521998
77.9143500869335
77.2870325646537
76.2429912677914
75.1091260436846
74.3877584454663
74.1950718705352
74.3701564666359
74.8972738022158
75.8147459704258
76.2823394136045
77.0256509123292
79.1782058178463
79.8959606904957
81.1607007424949
82.5639247450165
82.9881638018043
83.6107362819324
84.2799874810501
84.3469285570964
84.7925301402099
86.325886413094
86.5858275525053
86.7956934230936
86.8757078708718
87.5469524252343
88.4256288185113
88.4389971380916
88.8425158395879
89.8386856378518
90.1317798973516
90.0590161540187
90.6342160288852
91.3495577346032
91.5558470310633
91.4560938823642
90.8094120811685
91.7678241053579
93.2056585694322
92.8130256928438
92.416158348541
93.1791191404682
93.5853834464362
93.5284516180136
93.4737458648287
93.3196770235276
93.3030269427146
94.0789989108862
94.345864148845
94.1895425065813
94.121868836515
94.3471565992649
94.39220954702
94.4921142620841
94.8100531596454
94.6798535791025
94.3391126991219
94.5035566179789
94.6083341914093
94.4483456996187
94.4498540578538
94.6346365633458
94.9020969783021
95.0409535958585
95.1929031085461
95.4065006862864
95.5821095995032
95.6681014752077
95.7869503890147
95.8761995812196
95.9195877071954
95.9101615343066
95.884900611444
95.7549892040542
95.5368924662558
95.139863406979
94.6775004835198
94.2068828292291
94.1311780440621
94.826937874024
95.1583900097947
95.1460518146083
95.4845726899673
95.9079524031343
95.9967834590499
96.1469930229165
96.095693867563
95.7647505300194
96.3055537824214
96.5800246366165
96.510847233158
96.6020996603578
96.5677173027221
96.713297087135
96.7132543026818
96.6603945007602
96.6853291337025
96.5972446966498
96.7100863846228
97.006781068027
96.9076487379034
96.6916119497884
96.8220430024413
96.8909254718508
96.8216800636069
96.7088316584556
96.7428780256903
96.6637031464544
96.8147650375456
96.9025146133933
96.8301729231742
96.9872747546089
96.9374303649907
96.660178382348
96.1419152385208
95.0215501596642
93.7830140604768
93.7269028659365
94.2093650685688
94.9594739838471
95.7526150619411
96.4298709587251
96.8963051636224
97.0395092335792
96.9794474306834
96.944800913165
96.8804344508508
96.7804638472972
96.5667647129255
96.286798058451
96.094428334859
95.8366889948199
95.4905818856842
95.044786203619
94.5922851070174
94.5821558762131
94.701282757907
94.8503044179155
94.9813743498802
95.0735277964956
94.8867433983864
94.6264394328073
94.4086961719154
94.4895746355843
94.3879798940746
94.3701427413891
94.4106471016007
94.5422558973258
94.7386275262108
94.8461842350425
94.9173491903014
94.9955243599845
95.0081442410943
95.140231900702
95.5293728880128
95.7708920191503
96.0214282160125
96.3035445517746
96.5766219040569
96.7175438237487
96.7753864928932
96.7970313333814
96.5676871841463
95.8510168658805
94.6713409913899
93.0560201564542
91.0495842956334
89.0903511585466
87.9173119205749
87.7655227338518
88.7039202850935
90.1013834844105
91.1617229737792
92.1039558783661
92.9874169130531
93.5087252253551
94.0330668440601
94.3561305787975
94.4622767248642
94.4789271475242
94.5264769080332
94.5917433283895
94.6445349340144
94.6921897568529
94.6658811456454
94.6376341204062
94.5028208853922
94.346005116025
94.1995244659728
94.1436067527618
94.3107164859921
94.6348854367327
94.9480218488121
95.3285676444696
95.6655829915153
95.8244939869399
95.8688623325687
95.834613624496
95.6662546139354
95.2602856657296
94.4895667729351
93.2817381651346
91.5964986914512
89.6320946422865
87.8595321483742
86.8284081784083
86.9946047490074
88.175249434887
89.9197596737692
91.7771420290832
93.3519619497734
94.4005677681644
95.0141555119645
95.3119837770074
95.3893549391206
95.320611003849
95.1696793832107
95.0177524247951
94.813267592154
94.5447846922843
94.2346669928668
93.9109932708683
93.5762585603152
93.2696219624732
92.9791015646193
92.6139659115844
92.1608073011258
91.6214593346847
90.9754235769712
90.271236414615
89.5692640494214
88.8755499108971
88.1878319028032
87.5289672351679
86.8981161352957
86.2831553641998
85.6780792633587
85.0679596158258
84.4358329029629
83.82043993328
83.2259898929389
82.6233298232125
81.9806153359091
81.2725904233957
80.5431270833821
79.8314843134177
79.1553464235389
78.5585158282644
78.0740945067998
77.6785686300216
77.3262470595756
77.0003600922484
76.6593282484889
76.2691751941986
75.8392087910429
75.4121975616052
75.0277466347904
74.6814835633072
74.4095985715716
74.2611661018829
74.2262966040726
74.3280069158638
74.5748386398993
74.9085716695011
75.3106794218228
75.7596488990233
76.2047403571436
76.6482738511466
77.1108188686604
77.6282491052169
78.2359833497991
78.9096889716613
79.5941319024276
80.280165291281
80.9770838933046
81.6352718171163
82.2555429179844
82.8872961835924
83.5433058400906
84.2037181503535
84.8557467559252
85.4934682636783
86.1376244940188
86.7840931098369
87.4074936144028
87.9830016077226
88.4918682097202
88.9327658791082
89.2956285535929
89.5621626343052
89.7065371080206
89.7325866010781
89.7185526138439
89.6960103120067
89.7696520861839
90.0488482378296
90.5284973721556
91.1193245987621
91.6831441535513
92.0952005053754
92.3671682612242
92.5611923753556
92.6893350762535
92.7164432983285
92.6428157260713
92.4920016813043
92.2462219681054
91.9223219558025
91.5518466906407
91.104077643584
90.5355859874987
89.8718935533311
89.0919826063227
88.1740522467475
87.1088545447881
85.9255377470227
84.6982490035012
83.5099951303996
82.4629984065874
81.5713067878016
80.80312006025
80.148367142068
79.5892182124801
79.1368762699301
78.8412204004928
78.7392718056373
78.7671441513041
78.8222705986041
78.8185376085417
78.6614407556428
78.2856946021623
77.7262974358933
77.136160432937
76.6023699465309
76.1088449449075
75.6886864944112
75.3758957919196
75.1784687684741
75.0932512461033
75.0717326340106
75.0933760916007
75.1554718610253
75.2684948399265
75.4265334583806
75.6640060949991
76.0492748061758
76.5420913021416
77.0763243088258
77.6686776571572
78.2869223662441
78.9062731462611
79.5324694827804
80.136205965933
80.6844386418925
81.208525051528
81.7043405232137
82.1517084049591
82.534259901477
82.8334022501027
83.0214004883974
83.1379788736886
83.2079138874385
83.2259180149524
83.2326964025759
83.2595413577619
83.3574137186964
83.5455313034755
83.8126082482058
84.1599677843158
84.5787536110301
85.0753986527857
85.6256051600434
85.9557235683288
85.499729323445
84.0521332502644
82.2812314915094
80.7038716011186
79.1891765757777
77.9404612270597
77.5346761798995
78.1800606259007
79.3846010609081
80.5753737289709
81.5979365975535
82.423797685623
83.0634169608872
83.5965889682234
84.0630077947168
84.4743295242707
84.8309729147872
85.1284044962727
85.3616152746543
85.5430387179324
85.6751729952475
85.7923452329388
85.9133510551152
86.03365911279
86.0933502352269
86.0183655159911
85.7986427741462
85.4314136317975
84.9538897359943
84.5091851157248
84.2491723189472
84.2084274950053
84.3625426833457
84.6588675609182
84.9872708479074
85.3047269336085
85.6421497857334
86.0060464046426
86.3394180558633
86.5902491058251
86.8182879994496
87.0676421360606
87.3034357950537
87.497307767529
87.6775974332517
87.846124104818
87.9783756990227
88.1257757389329
88.2818594267543
88.406206637285
88.5225197828688
88.6507909613085
88.7636826924569
88.8691726255759
88.986157648148
89.1100506294705
89.2599700396297
89.4265631933016
89.542228929493
89.6174582046249
89.6948490723685
89.7282917922355
89.6809952092481
89.6373788502776
89.5516589160051
89.3512464272447
89.132459988178
88.957952845876
88.8639034582054
88.8175609883883
88.8086565387842
88.8784373815563
88.9960057014421
89.0832734391194
89.1734208058035
89.2265484460763
89.1107925966135
88.7874785026611
88.2756941861485
87.5864002960743
86.7507754825005
85.5998252119243
83.922804268148
82.2486129388417
81.9685550337802
83.029090674227
84.2142012094477
85.0797713030939
85.7046934919095
86.1040388017134
86.331776855969
86.4520482723401
86.4996033904447
86.422340831343
86.2195570910251
85.9230819362613
85.5955261854348
85.411709748464
85.4816911498187
85.7621436400985
86.055612525881
86.3278232282364
86.6124199310424
86.9209452261462
87.300802822033
87.6578447408193
87.942017009232
88.164649315342
88.3355427758103
88.5719451394236
88.8564700513934
89.0194496060183
89.099991325061
89.1925470744814
89.3017718589145
89.4106563901413
89.5303223170374
89.5604318699099
89.557799479517
89.6042569777738
89.7511391597403
89.9568252456844
90.0565374110107
89.9142117350617
89.3319882149244
88.6165469770293
88.3658630881727
88.5936882530684
88.9926024142621
89.4541458140133
89.8533501869589
90.1857439866026
90.5217565896347
90.800991856575
91.074931102971
91.3860320931948
91.6505554947499
91.8866036272988
92.2242189684728
92.5111585399468
92.775261806107
93.1095105648337
93.2842175616342
93.4385640574766
93.7418266017825
93.964837766215
94.2037197116721
94.4131675128443
94.6634415048936
94.8993318242245
94.9619613017448
94.9567488002152
94.699156242919
93.8432131171998
92.3948329654363
90.4187593079732
88.0791177441281
85.5948406816449
83.2205696473464
80.9006975008108
78.5256510661586
76.171146219542
74.1936009326521
73.0291120744705
72.8081738436352
73.0916546757574
73.4759725222297
74.2208505507219
75.0401043431814
75.7706471663279
76.4875222968121
77.038828966417
77.6621106364593
78.288568904108
78.7905421462324
79.5036963191506
80.3027500154857
80.9737473941726
81.6431142155501
82.2178533238604
82.7635028965697
83.345441356371
83.6623447554224
83.7736723503492
83.9640592156201
84.1334130629714
84.1026478939915
84.3123704375939
84.6604777280081
84.9984706235162
85.180311091296
85.3799372497614
85.9870563517334
86.4132643344748
86.3784994159352
86.492416811928
86.5933372157702
86.7985184960498
86.9464793316634
87.2985481821922
87.5037741796039
87.4308780558939
87.6829801420059
