1798
3999.43349933624
650.420452594757
1
128
4
97.6623076263354
97.5994665733879
97.6002924467763
97.5805999802215
97.6044721964257
97.6373730304044
97.6478137786013
97.6132546218292
97.6391606480502
97.6115683623333
97.587513777651
97.5856160310669
97.6389591902869
97.6248432927114
97.6507520770259
97.5745139131
97.5260184407539
97.5857507330453
97.640677114642
97.5693302185884
97.5969356445467
97.5940341528655
97.6066412048131
97.6655541066577
97.6859221331818
97.5400282851109
97.4881460021912
97.5043797006147
97.5138065774061
97.543082041984
97.5802531305685
97.6167779003911
97.6808121900103
97.6591092185183
97.6675030471801
97.5838514381235
97.5964110974179
97.5825461085252
97.603201836542
97.6037013656429
97.6125409721883
97.5259292386551
97.3758225019637
97.462566086184
97.5405674166961
97.610013958048
97.7248053318193
97.7163854282374
97.6068292672621
97.4330005098745
97.3478222309072
97.3918828717877
97.5083066240887
97.6098668582906
97.721495570751
97.6220403408471
97.544508530742
97.6405048370541
97.5719460182447
97.4596161584703
97.492999822774
97.5060886234213
97.5078904268408
97.6105553300307
97.5845388470351
97.5543420089343
97.6172417288036
97.3646477188747
97.4066841410505
97.4565862434983
97.5309387821086
97.4476917549019
97.4755992350552
97.5761929992435
97.6073633961982
97.4487658786058
97.2566430247716
97.2839846105322
97.4102955511795
97.5660095348963
97.6533173629643
97.600930232612
97.5429883080722
97.5324869075244
97.388833618982
97.3213066217397
97.5653902411755
97.6371941162103
97.5305104345357
97.5930643789901
97.5889037142191
97.601964322847
97.6727349421898
97.5293294136009
97.435606258843
97.5173482341091
97.4589373262559
97.518437635617
97.6449048759339
97.7338634484788
97.5750771923512
97.5004136536556
97.6920549857835
97.6302692472419
97.4272643163814
97.5105572589388
97.571347097052
97.5268063702856
97.5559689621709
97.6951124906551
97.701544855936
97.6985610315936
97.6479051062976
97.5029964229163
97.5339745466207
97.4820603422492
97.4243007568637
97.5108510410098
97.5975131013349
97.6725056113106
97.5809835785593
97.5174304765878
97.5749232067625
97.4453344431422
97.4633010017818
97.6221434563287
97.6482886654761
97.562027144372
97.5459171605747
97.6065768154425
97.4972146424605
97.3241638035744
97.2160690060736
97.4955498762858
97.4020439901949
97.3998488549345
97.4472548846034
97.5930157218789
97.5864820916618
97.4953891401524
97.4867204641958
97.4135525979345
97.5739010838548
97.6113061050163
97.6772511439778
97.7121064676991
97.6477060998707
97.5521831058769
97.5065431559311
97.5899555282836
97.6810195896096
97.6033892646179
97.4477859051245
97.3621619930157
97.5260463029595
97.7164306841433
97.7194291884127
97.6024025425736
97.6277249933301
97.6181917249144
97.5534296516539
97.5749119920545
97.6221869402315
97.619959800251
97.4161843152621
97.2869211677158
97.4676532906825
97.531876967929
97.6836377563585
97.7303486266159
97.6612388063971
97.3736937061809
97.4514820370217
97.6122216333374
97.4177552517367
97.3021838532186
97.4250398304597
97.5520030799594
97.6374645725379
97.6912584878282
97.6373915835863
97.463482085645
97.4324703440832
97.5927074772461
97.4832741218395
97.2643501943967
97.1658603380728
97.3262089663149
97.4836993511566
97.4743200506454
97.4421648164046
97.3645381511709
97.4357185436694
97.4983729080039
97.4607746004442
97.4735454397032
97.3760569253649
97.2333058900488
97.2488031146822
97.527888861704
97.6291784379015
97.4432977922597
97.2079446219827
97.1604147172561
97.2924230186604
97.3589520331948
97.3555247323589
97.340334862582
97.2681969671645
97.2340366329126
97.4224327265676
97.4620852919209
97.444331477769
97.5301618824384
97.4947935000344
97.4470316631354
97.5739264726379
97.5991115597595
97.5166526968118
97.5069838307932
97.5518638110464
97.5001575889645
97.4666441379672
97.4573373069114
97.4757738718699
97.4993238711246
97.5683883998099
97.6388176653601
97.712162644679
97.5220234335436
97.2560312678432
97.1440666069537
97.2111567611191
97.3024404971094
97.4461383177155
97.6236120630964
97.7568662974902
97.5342397233609
97.3207399015013
97.3512491442671
97.395499627697
97.4168019124934
97.4783367710738
97.4939900395444
97.4295039723706
97.4076911583092
97.5102277888162
97.5476218312108
97.5410792806752
97.5399738521308
97.4935820534055
97.4578847977897
97.4663395609908
97.4772522733602
97.4907394785276
97.5254316656146
97.6447849289858
97.682957730585
97.6016549571521
97.5646401886995
97.6659647022404
97.5991612288439
97.5655581823102
97.6111320963081
97.5766960468739
97.5875046723506
97.5861762482424
97.5604131360623
97.6201123328577
97.5173029204937
97.4901502505209
97.5604237526789
97.6157811867811
97.671895451488
97.7380312169475
97.7049888303034
97.5814161711361
97.4456548091954
97.5232717010079
97.5774868458683
97.5710331656173
97.6510192599971
97.649362603618
97.4724457650553
97.4518041955121
97.6188031265951
97.6706707675897
97.4823970009549
97.4913099969039
97.635027331033
97.5756125379599
97.4494597346339
97.4783083926486
97.525182528555
97.4833822746563
97.4117100282679
97.4450897595327
97.4449533294189
97.3009391420338
97.1551394452985
97.1822438693333
97.2465435663189
97.2679068903816
97.2969323342847
97.265688919928
97.2477306799761
97.322677708127
97.3559943261926
97.2566307050864
97.1476660500869
97.1466961359512
97.166980451523
97.2419222387385
97.2804374777746
97.3375360491162
97.3713269134481
97.36136120627
97.4408319815735
97.4452731889039
97.4008106173987
97.4427321272893
97.4360858000471
97.5401793550276
97.5503625078458
97.4712117629361
97.5138725897645
97.6229752985032
97.638401433321
97.5929647622191
97.5725045308119
97.5980631893446
97.5994994443757
97.5929938761194
97.5559453860677
97.5850565879309
97.5690031285756
97.5207183029666
97.593515737195
97.633046410643
97.559629699702
97.5148166030764
97.514792146119
97.5935692157483
97.5971703424542
97.5148073855832
97.5125163373591
97.6020026924921
97.5737993217954
97.4815739486607
97.4653421303069
97.4979439400769
97.5265407588421
97.5517972518258
97.5830486721199
97.5963791599641
97.5726315886944
97.4973095927951
97.4130286381902
97.4118465776864
97.3867794941867
97.422197705981
97.4992559519745
97.5197047656141
97.5273411629027
97.5971983324943
97.6692502840863
97.6419792082076
97.4984218643052
97.4210937445572
97.4227064371194
97.466833718725
97.5415682717647
97.6252134555231
97.6221572759898
97.5729035469736
97.5180115772417
97.4844571303085
97.5092992186111
97.5808791249772
97.5677799630864
97.5717747816742
97.6261904245308
97.6084515740357
97.4849597518342
97.4065802532149
97.4984671591512
97.6118547714999
97.6052166218297
97.6257851307762
97.655754945744
97.5713543872375
97.4850061028489
97.5494856346951
97.5524519184045
97.527703488529
97.5085457073374
97.4377537757287
97.4321681337387
97.5130100959651
97.5339964266994
97.5179440685679
97.532782811715
97.5762861184463
97.5759598819105
97.5721733061554
97.5519241241743
97.5336945309069
97.5276140593601
97.4833771696904
97.4851685272458
97.581630179309
97.6005799602823
97.5636028722512
97.4800334847573
97.4710708196643
97.5484496427239
97.5430054103204
97.4664648050578
97.4750977185972
97.5191888294316
97.5356191118187
97.5903673271738
97.6356602987334
97.5194233061255
97.4575574823707
97.4650120792245
97.4715978263251
97.5232666427902
97.5692889248376
97.5431067065234
97.5163217570015
97.4677395820097
97.4518889024735
97.5431120138441
97.5505065212263
97.4798902287435
97.5693339825343
97.6233413307948
97.5194987535361
97.4685148123363
97.5185265969604
97.5174166173292
97.4516478587701
97.4556831538519
97.5385361091048
97.5146466275712
97.4861780689496
97.529861569907
97.5648108171876
97.5174854431912
97.464738866583
97.4664965993682
97.4855787952146
97.534623637096
97.5217600318544
97.4220266574083
97.4629070662509
97.5607412427816
97.5695599551304
97.4904089836841
97.4189329147681
97.3651188410201
97.3664947020169
97.4183011680133
97.4546481068498
97.431521380387
97.4229624163877
97.4063372889866
97.4011080601144
97.38404471721
97.3175249813861
97.3061034317037
97.3641043579512
97.3888841340258
97.3803007353899
97.3429358500526
97.3262591376084
97.3180464264371
97.2989914043881
97.2623751727409
97.2118505182429
97.210965164313
97.3142389134866
97.3377695925093
97.281094464207
97.256998402429
97.2684343928904
97.3248970959904
97.308402804207
97.1855763256218
97.1089365195177
97.0990222650451
97.1567474978747
97.1835128103718
97.1679129456004
97.1771175445191
97.2172380108533
97.1804707580267
97.0946208000133
97.0384344621071
97.039809227224
97.0711462385338
97.1312891157503
97.1430640030892
97.0808483493302
97.0584467278928
97.0791733225737
97.0719526327542
97.0586883611459
97.0561234946333
97.1366115756474
97.2329171218477
97.2294482853848
97.2083407233753
97.2712837654648
97.3211963226565
97.3453183066822
97.3377127480823
97.3194651653287
97.3362959757302
97.3439109665947
97.2842313799872
97.2166521032662
97.1771873034458
97.178847506814
97.1711034142594
97.1511152323092
97.1133769916337
97.0258809370435
96.9768134210538
96.9847640904896
96.9367837501826
96.8975071096853
96.888870356998
96.832132306767
96.7306976816884
96.6665023220151
96.6312094777319
96.6555623257846
96.72803369599
96.7639984769524
96.6687089783611
96.5418076661992
96.5029957108164
96.4591988861547
96.3959005315168
96.2909340080408
96.1400128720831
96.0632276802532
95.9708388627792
95.8559063584849
95.7684774516998
95.6783245381646
95.6506416545714
95.6480307961515
95.6021276301918
95.6299253968849
95.7123200934632
95.7892181428918
95.8386278179292
95.8817615744747
95.9508393226341
96.0405667545931
96.137626844885
96.2735004356928
96.379380926964
96.4711724556093
96.53877449575
96.6086713006966
96.7222107280792
96.7982211020684
96.8375670354199
96.8795437683714
96.8980123945406
96.8850219367727
96.8491891026381
96.833620371488
96.8183603666988
96.8568582650939
96.8561135096356
96.7624383994498
96.6998716640563
96.6624366657464
96.6007828004986
96.5215899337992
96.4773385337286
96.4796228271559
96.4636855869085
96.5030119650295
96.604420400304
96.6368122641611
96.6369555843775
96.6921370640971
96.6856475768673
96.6294826371665
96.6521993612437
96.7114322654156
96.7467500339349
96.7611729327562
96.7300509768379
96.7406817776609
96.7807506871652
96.7536174739952
96.7635164114463
96.8556129117214
96.8903433711558
96.8602924203777
96.8494813859611
96.8882082265172
96.9277724838648
96.9549233702774
96.9751450953716
96.9846085514373
96.9492734832405
96.8803030532408
96.8686147139453
96.9614473413734
97.0319957734661
97.0285492580331
97.0222850006833
97.0309958232402
97.0518113381915
97.1117245767492
97.1480142204316
97.138085771257
97.1649540570356
97.2079591076967
97.1886469608471
97.1877892385563
97.2048174166175
97.20040328732
97.1796957502912
97.1697586848017
97.1733658113507
97.1651275872464
97.1805765421085
97.2258335169603
97.1980816021413
97.1434319988606
97.1770973955503
97.1859505572927
97.1353858188029
97.1512807558208
97.1677316636325
97.1446635720136
97.1580240673187
97.1831439780153
97.211253071916
97.2578323126104
97.2722011623315
97.2464573522284
97.214787617633
97.2400079942626
97.2844204646325
97.3005454948864
97.2770583216429
97.2492841187613
97.2467259555945
97.30153271871
97.3172263871616
97.2884361901641
97.2890966062978
97.2892613589629
97.2658424605418
97.2847208156381
97.314348104174
97.2957558562277
97.3012987565611
97.3077173604349
97.2927781375961
97.2960537955978
97.2954185519924
97.3104752689231
97.3023471527516
97.2784878408193
97.2931902086983
97.3232250143726
97.334286917091
97.3251626027444
97.3320265508525
97.342335047669
97.3288672127787
97.3298514754139
97.3211273652613
97.3506341858252
97.3924326940814
97.3850908951286
97.3552569267787
97.3500287156292
97.3817824546319
97.4243594914513
97.4429514120764
97.4314330651334
97.3886986762488
97.3734642552626
97.3905103346997
97.3830727540865
97.400324753679
97.414203019949
97.4049412881143
97.4367950342623
97.4348589039445
97.4131600012817
97.3942554901333
97.3750692109672
97.3738210835057
97.3973724569851
97.3939495340093
97.3651455697059
97.3788357579389
97.3949644920626
97.3791125983792
97.3812413212527
97.3883390173674
97.4041108019525
97.3938090059456
97.3663750657226
97.3589500362619
97.3503185715661
97.3362211352714
97.3259358843866
97.2903448828389
97.2895913049527
97.319412223138
97.3242456813629
97.3474887590788
97.3791308527565
97.3437814707084
97.302591015899
97.3056125935498
97.3254309698806
97.3275783907547
97.352489956639
97.3489083931088
97.3089591362241
97.2893447200092
97.3208479337918
97.3913699936786
97.4176878338526
97.3811065020093
97.3946889058943
97.4302755113945
97.4169956985378
97.3969318308115
97.4029278449241
97.3921088445783
97.349586458368
97.3090510428971
97.3494490935264
97.4337877344774
97.4616101810416
97.4479991628682
97.4431860373896
97.4310199357391
97.4445718240657
97.4657021141746
97.4863186572292
97.4682243670437
97.4193105776435
97.467206195654
97.5242781906665
97.4603470705214
97.4552451782302
97.5210728703341
97.5371666933924
97.4928675085136
97.48882758809
97.5255705894629
97.498478290036
97.4655974930172
97.4509408382059
97.4253982046089
97.4311317808524
97.496367624434
97.5596745691306
97.5361520962309
97.5118995709997
97.5331907855281
97.5057323478223
97.4563317065425
97.4884937479174
97.504500731852
97.5082197906149
97.5190175726664
97.4626011454791
97.4041733769704
97.4349991581623
97.4634478577246
97.4793419646807
97.4900081963747
97.5479999226097
97.5962749425216
97.5459741100453
97.4805545050025
97.5320443210243
97.612786664962
97.5916576808716
97.5229223454719
97.5276279323858
97.6428408376455
97.6526117030251
97.5355398900492
97.4847908426091
97.5229461093452
97.560358960005
97.5618232980056
97.5743695608969
97.5920396974975
97.5765266519406
97.5598221416854
97.5941024196885
97.5988986591358
97.5763784013381
97.6123178343141
97.6319814169013
97.5945786250934
97.6019524059615
97.6399858705905
97.5597421367487
97.5109831942228
97.6241057300912
97.6786635859648
97.6619753353207
97.6341217851998
97.5862819307432
97.5750753246867
97.6339891370873
97.6627926654129
97.6581909319619
97.6694529568658
97.6698427979993
97.5996425927135
97.5338141987501
97.5507987159334
97.5769548641242
97.5984962736736
97.6204415993821
97.6145068176727
97.6463550914414
97.6219416159712
97.5867538592613
97.6097936362777
97.6223898255798
97.6454980969095
97.6428598285446
97.5931795945509
97.6089302914093
97.6060036296714
97.5403094834685
97.5161315991077
97.6054319084165
97.6604235725304
97.5878541842678
97.5472055022894
97.5728569459133
97.6207462979315
97.6279224043535
97.6212498566501
97.6605930528264
97.6401445969057
97.5088613833476
97.4837322114146
97.5166561380419
97.5171343403477
97.545419901769
97.5260991518808
97.5322593914969
97.5569321966736
97.5618445032144
97.5571841750174
97.5536108548637
97.5648588240117
97.6318168552635
97.696456133272
97.6378412683451
97.5289733091502
97.6319512172367
97.7123125159249
97.7535495251616
97.765436039229
97.660970614759
97.671666040235
97.6694480309165
97.5854940387267
97.5644839834737
97.5505453319495
97.505011526645
97.5507337750435
97.6375712975077
97.6771468654438
97.6929465563101
97.6266675004362
97.5753495570891
97.6734169812307
97.7079888403275
97.6532899759975
97.6819951959626
97.6243755283331
97.4697053441703
97.3178174933205
97.359502159293
97.5400694024594
97.5860612780418
97.5127983423554
97.5166765587814
97.5644577002306
97.5363041733378
97.5183778998618
97.5655033279684
97.6212399033347
97.6905530811764
97.6939200549315
97.5930812833905
97.6071590193045
97.6475089347494
97.5902228150658
97.5528314025719
97.5357884788148
97.5360481280883
97.555147847218
97.5548426297905
97.5940151921831
97.6448629803741
97.6648193181571
97.7190675712344
97.7913459925917
97.7550849565531
97.7544029928764
97.8944880833084
97.9748140868219
97.9868409759103
97.9938941850021
97.9352341128311
97.875206280818
97.8543296774415
97.9260103445508
98.0812833594072
98.1359604797262
98.1169530945116
98.078935706255
98.0204526911272
97.9641274789105
98.0999235853333
98.2022296396169
98.0073914412773
97.8580846829346
98.018139707782
98.1792629051806
98.0861860646013
98.051859071921
98.2870241495855
98.3981218472809
98.3062660892483
98.1808438976468
98.2784912813421
98.423094454843
98.3487544808081
98.3437014436537
98.2934297759714
98.2493589442081
98.3774095770312
98.3728082730769
98.2579435593409
98.2295531442377
98.3436145826972
98.5699748774573
98.5931031972688
98.2972564518291
98.4003614786876
98.73595659971
98.74149124298
98.616754622418
98.4046101324953
98.3789804725648
98.5392076011529
98.6197724674929
98.6235475057427
98.6078667107674
98.7336248967123
98.9306511872092
98.8535186085982
98.7741907282059
98.6148172630709
98.4332651232068
98.454426088145
98.9196888512077
99.2094332809388
99.176665810502
99.496413098623
99.4475465432561
99.0590889260934
99.085159802365
98.9262013412876
98.5413822667665
98.6660074024001
98.6959523831836
98.4851907910056
98.5171957392482
98.5800454818397
98.5028478870594
98.5259618972371
98.6706014928369
98.6088343224649
98.3543934169779
98.1781629641858
98.0268933746414
97.9952481643867
98.0963086803666
98.1792265462659
98.231001447462
98.1290966058086
98.0521257064341
98.0364328582422
97.8719035698895
97.8619178838866
97.9512985038222
97.9356329594139
97.9522944501807
98.1048892608369
98.1582595295255
98.1207606123268
98.2120732901645
98.3136258726607
98.2194789531754
98.164073406219
98.1257697466329
98.0365193659492
98.0594536166226
98.1391497005924
98.1713643103449
98.1019724493205
98.1790043784524
98.2844258390535
98.2101295431557
98.1506706737801
98.1803179267955
98.3074974081906
98.4279977140126
98.4590718142258
98.5704242312285
98.5617510682664
98.4813861042241
98.488867303213
98.4774821867165
98.5466322833309
98.7052600747523
98.9093615245599
98.9619571948298
98.9307755582895
99.021977714494
99.1991832231366
99.2768351540028
99.2880674357698
99.1937344569053
99.088496335562
99.2268799961668
99.0327029227496
98.7020414929843
98.8215662368802
99.0515741456438
99.0248548875464
98.8749703479727
98.9730271118596
99.3254169209985
99.4245680007396
99.1447840404824
98.772918285123
98.6854776235392
98.7369167410286
98.7548180775623
98.6282867103683
98.5564185737503
98.6907837868122
98.7893271603441
98.776204757116
98.7836106089334
98.5250754025746
98.378958802813
98.8599502104289
99.0635686610134
98.9757696129368
98.9046852421179
98.6426378463203
98.3919263798795
98.6362006165774
99.0673104419034
99.1307850876093
99.1863496388549
99.0041736915215
98.5436393197388
98.4219675160258
98.4720234784069
98.5612020493758
98.5582895689492
98.4617072798814
98.5314396821052
98.4877657517595
98.4755246907179
98.4212373315419
98.312892401734
98.2807447716263
98.2152996862908
98.280165926317
98.4605784888892
98.4858405674089
98.311826228034
98.2543624826609
98.3163049541245
98.3786239699
98.3914193288251
98.3700039109513
98.3945253533091
98.4396331441815
98.394193402498
98.3305188579413
98.4451350229021
98.5196545403804
98.4890727482284
98.4494748847257
98.459434649757
98.4192483498215
98.3325096050706
98.4026633552011
98.5314564386753
98.5595745708572
98.4722417193587
98.4395301997814
98.4851206694523
98.4892004734277
98.5043620917995
98.4956156697534
98.4872527451356
98.5221294050429
98.573539794924
98.5484643915786
98.5291439721415
98.5350970201718
98.6108680346169
98.6086266090109
98.5802720031949
98.5881082934215
98.6352986676643
98.5706858276223
98.4438052548374
98.3709460509247
98.3201241178213
98.4045574235509
98.5306522055758
98.5745420364756
98.5547013192764
98.5416883753844
98.5473427447107
98.4876847750087
98.4269181047835
98.3868346425729
98.3493100802267
98.215112926141
98.2366665750817
98.2352424936993
98.2502202261253
98.2661792108051
98.1981452938155
98.13496145997
98.1518470394966
98.0613172377939
98.0401566983753
97.9983752262277
98.0824433331197
98.0341541128303
98.0386987282916
98.1225217807012
98.173726507847
98.1587124228007
98.0869360314219
97.9937427818259
98.0206789235456
98.0869825121615
98.1070169777987
98.054267079132
98.0421632256455
98.0758902921179
98.1019215005358
98.0713881141864
98.0665827053036
97.9386408782663
98.0161471179202
98.1199106186644
98.1565060845426
98.1120110103482
98.1539452275388
98.109061999882
98.1440414386111
98.1035659633532
98.0618869612393
98.0006811624267
97.9131181406099
97.9658344807448
97.9292313928264
97.9818105684095
97.9700618736836
97.8670451012673
97.7846999621571
97.6847786199625
97.4758594764504
97.3837139257247
97.1087706548884
96.6770271255285
96.1123835950032
95.3689077496558
94.5703021272889
93.4555247495115
92.2177311752484
90.7430577517731
89.2311531390504
88.0416167968499
86.4013332640391
84.7351310276612
83.45774731891
82.3688144508396
81.2852777490557
80.1679205189444
78.9979894677258
77.9441952833035
76.822921923194
75.3002459897568
73.8102696992603
73.2690803769042
73.421379718911
73.8479856833953
74.3868160080969
75.0364355370525
75.8960089828262
76.5604865743831
77.4033108446008
78.9730837871169
79.4498069032914
80.746012487092
81.9766983209401
82.4799156039899
83.1839591994843
83.7675258472877
83.8185912569548
84.1948343603775
85.4247096166657
85.7537822268618
86.24071135644
86.4834432977448
87.1231750232525
87.8044488458172
87.8960063913115
88.4409193025171
89.3050052269427
89.5953980319266
89.6972123071273
90.2962759469407
90.8709337250038
91.0740833587994
91.0386230801306
90.5381748458423
91.4313502833453
92.4851868605002
92.1342409281627
92.0325242470815
92.7565556928707
93.039626392786
93.0623444499337
93.1031063798369
92.9753401797015
92.9838386543538
93.6549882395708
93.821418180469
93.7743733512083
93.7925617226631
93.9817920519514
93.9640541673186
94.0610566869436
94.2931679655877
94.1571403822463
93.9112158690451
94.0642749662413
94.1208039582524
94.063342579004
94.2161431716755
94.4121504800011
94.658529672961
94.7982133721627
94.9480213452471
95.1369070251024
95.3011563726898
95.350604113225
95.4448841361067
95.5277388505579
95.5676822406484
95.529636406655
95.474740139676
95.2805352692386
95.0354397952553
94.6396601441068
94.2460393035079
93.8688005989511
93.9121191255185
94.5675112783573
94.8804891185961
94.9651009809744
95.3242187795242
95.6299832631651
95.6802081904016
95.8066308118058
95.6527815925089
95.3565526634398
95.9402326763819
96.0987828450058
96.1214586705546
96.2599157267262
96.1819513394859
96.3595761691772
96.3148145612978
96.2501833455052
96.1927455134746
96.1101649676661
96.3454914348322
96.6034000795757
96.4702725521662
96.3394755404163
96.4795996133433
96.4846524857202
96.424803987811
96.3026462583089
96.3139343880801
96.1955145317189
96.4409452374175
96.4452187790069
96.3114897088673
96.5138032835232
96.3662594884008
95.9499773594621
95.1872152306013
93.7586338786425
92.8448393477811
93.3385660339627
94.1518828033023
95.0064368778356
95.746974969831
96.3353564096751
96.6679453537516
96.6829593021126
96.5610932804922
96.5294871954867
96.4557755292212
96.3604487797074
96.1113726083133
95.8378744720991
95.6405297088669
95.2901948552427
94.8833669971612
94.314595548163
93.8769830860212
94.1033590954503
94.3776107662431
94.5611061189561
94.6099156555324
94.6619568693118
94.4380292738137
94.1138459561497
93.7672352729836
93.9131490710133
93.9187729007279
94.0287613598344
94.0758653163624
94.2259068847026
94.4315826027172
94.518117031474
94.5931153226037
94.7080408874664
94.723255270244
94.8872984156516
95.3254577276142
95.5865737981924
95.8565877971318
96.1224364653105
96.3567242418289
96.3559538301575
96.2704159590541
96.0959824647011
95.5115204484081
94.5603313316176
93.2610911308388
91.5753623280882
89.5896644559123
87.8737929029012
87.1749697214047
87.4921147450945
88.6875616684144
90.1215361415659
91.164067031521
92.0471290223674
92.8231052736165
93.2408344012533
93.7100178356996
93.9659226979226
94.0273852837998
94.0035697078761
94.0623158066929
94.1511749506858
94.1958464022226
94.2282633847553
94.1798073525937
94.118931230292
93.9484691446523
93.8403946557918
93.7928412173576
93.8280739037223
94.084058023808
94.4339902507685
94.7042668910225
95.0739819465485
95.3901887883289
95.5059861170346
95.4577725564478
95.2698380345961
94.9007315222846
94.2729856707205
93.2694438080627
91.834294499599
89.994192130644
88.0924269338773
86.5927829456018
85.9550505623487
86.6096529968806
88.2409456296101
90.2409812228459
92.1210585240163
93.5482631285334
94.4075312886338
94.8397039258073
95.0038020714138
94.997401139658
94.8543388490054
94.655156899531
94.463069084593
94.2470652429959
93.9615808269961
93.6332035295664
93.3080955637947
92.9680245437592
92.6207781240937
92.2598389038955
91.847916491207
91.3075494850074
90.6433831454337
89.8791094281059
89.0917136002334
88.3462714158185
87.6119502781453
86.8625972246411
86.1424210853604
85.4497983405087
84.7680461109145
84.0636359585328
83.3582768770348
82.6497465770702
81.9688568436801
81.3035736943875
80.6194898755606
79.8915612107311
79.1238651093102
78.3469494678474
77.591900406904
76.8935111060339
76.2801085599281
75.7869493938004
75.4008602137898
75.0635015640989
74.7028283768939
74.2845494472168
73.8508782129994
73.3824034648211
72.9321494814715
72.547226202562
72.2202945798955
71.9957601014047
71.916551262559
71.9679509206229
72.1504562318157
72.4757883927692
72.9015599941282
73.3841746589744
73.8800479436537
74.3655234353003
74.8565928050836
75.3745628828134
75.9606727931255
76.6216793972286
77.3464943625281
78.0979877557694
78.8327730148791
79.5609508401839
80.2739366027436
80.9788515230868
81.6803872719895
82.3728409938861
83.0749196220476
83.7832985796184
84.4922317393576
85.1870724220682
85.8610848265603
86.5078856305651
87.082602036757
87.5860686957993
88.0250800475791
88.3747838572789
88.6109306093201
88.7390709129563
88.7638731370055
88.7511770519402
88.7902932920208
88.9681669814032
89.3364833545316
89.8793295226903
90.5122042369204
91.074896731476
91.4619895486071
91.7006365495782
91.8533661601725
91.9341856122839
91.9115679907639
91.7932418326526
91.5898805408787
91.2855902157658
90.9081491314329
90.4605868775913
89.9204617921511
89.2540446240067
88.4533393546879
87.4970350487308
86.3760730137773
85.1055518827354
83.7268702993099
82.3390271562768
81.0915300692641
80.0511990096439
79.1743480010568
78.4296452515565
77.8189022016325
77.3113666168385
76.9092088530696
76.6888021915418
76.6358225016689
76.6509798311048
76.6786966344637
76.612687216562
76.3265779274048
75.8049202601147
75.1567285177369
74.5015780970364
73.9092662766587
73.4195595427534
73.0309095617081
72.7266739974223
72.56153919595
72.5275450530103
72.5407881157372
72.5896247309035
72.6954930121264
72.8447862272895
73.0567883586164
73.3839826236712
73.8324127092114
74.3784255452864
74.9952627791623
75.6513757520241
76.324730033456
76.9959397396095
77.6539537035495
78.2593729482451
78.8419008506708
79.4034525764831
79.927854364533
80.3936488535076
80.7685859817805
81.0574371825069
81.2511553154004
81.3668475238369
81.4331059557954
81.4567255069243
81.4922715685151
81.5856454541435
81.7496014312025
81.9961490539696
82.3271758714156
82.7003012429273
83.1021149845702
83.578053090069
84.0097674992297
84.033982196858
83.1454595909365
81.3131875843778
79.3406432520636
77.720962487946
76.3201154953006
75.3210594180809
75.284379959342
76.2824984283389
77.721823589683
79.0205257895025
80.047882476535
80.8685504306631
81.5010921322855
82.020381380111
82.4879853308022
82.906706773582
83.2676226324291
83.5661190960354
83.8150505380851
84.0036814642658
84.1219219783512
84.2295663204774
84.3643869298051
84.4622867908211
84.4626522038942
84.3358606442799
84.0452182044164
83.5866244254354
83.0664871211324
82.6301085411118
82.4111951486261
82.4496257560995
82.6838742190548
83.0391821771058
83.4423936256908
83.8488946687668
84.2407862542434
84.5934210828186
84.9210686001037
85.2125908519057
85.4888285323157
85.742881668604
85.965108042417
86.1650264297089
86.3752666139992
86.5656608945048
86.7189698247634
86.8678945647258
87.0189498538423
87.1920716284381
87.3437587913408
87.4520266459334
87.5778480228156
87.7299718270687
87.8838116664712
88.0345407696272
88.1830784552313
88.2975775664131
88.4185239513691
88.5050842234884
88.5571254836853
88.5637666449478
88.4946833221395
88.4254049431362
88.3169390508976
88.1208977882438
87.9411932223684
87.7686781145725
87.662292505046
87.6712728566783
87.6939448264822
87.7316581145097
87.8264471008412
87.9172161843295
87.9755293242263
87.9406999432954
87.7271501740959
87.3008469933008
86.6673885779354
85.853342085217
84.8404053862352
83.4999549025073
81.6940611665886
80.0530966535888
80.0218333470586
81.3920754283156
82.701861686196
83.5871086958865
84.1721164416072
84.513656011225
84.6820724500816
84.7489816816441
84.732187059486
84.6218515736733
84.3820093895529
84.0296938188168
83.722382406455
83.5784106268894
83.6579023036511
83.9711569717209
84.3690040061561
84.7669780841027
85.1089234078824
85.4426252919069
85.8053634310234
86.1411517885298
86.4351750011083
86.6799857779655
86.9287534977776
87.1955754869118
87.4648948427641
87.6180025224291
87.7284908568294
87.8270102465817
87.8939607483599
88.0423724840009
88.2186609016673
88.2846261847784
88.277055295099
88.3517268532707
88.5137651372126
88.6609189856607
88.679213943352
88.4393676959633
87.779251293163
87.0231375159712
86.8152406968016
87.1389189730555
87.6485254969928
88.1648953056672
88.6299511293038
89.1010590415139
89.5360092146602
89.8421147028879
90.081648627023
90.3661752481276
90.7228535799034
91.0197932294395
91.3220165007503
91.6565329340094
92.0386802727087
92.3666693897401
92.5993800970235
92.7903424815248
93.0772415740264
93.3968526455953
93.65178669983
93.820147175549
94.0262673562868
94.2647593659903
94.3248895035542
94.1855396569254
93.7155827972266
92.6428918834067
90.7988082169823
88.2825754490223
85.6015285537147
82.7588280953339
79.9758834219867
77.3482187970173
74.710874745702
72.1254179097374
69.9292632711362
68.7125616136778
68.7250617635625
69.4217591040415
70.0793867735438
70.9059262108755
71.8491004981696
72.6242629092098
73.218323112205
73.8646898638402
74.5881159212219
75.2556888974957
75.6695012698431
76.4240326829516
77.493949170009
78.2909506053859
78.9784225062832
79.6690850645205
80.3796060113488
80.8205967337952
80.9663912794543
81.1777945082905
81.4380285599668
81.5685702318832
81.7585958161377
82.0653478659512
82.5097511744819
82.8631090217445
83.0132402630669
83.2140735641009
83.5465844893701
84.0141796809456
84.3045633497628
84.598879202355
84.6233875024296
84.5263220354252
84.9337988239277
85.1457155861375
85.1467740746135
85.1098189612855
85.2202093461372
