1798
3999.43349933624
650.420452594757
1
128
4
97.7255592371943
97.7035937336396
97.7419067606622
97.8022141732021
97.8259093800029
97.7943895254512
97.826034590553
97.8082069629605
97.7372221375717
97.6850108994361
97.6740229133221
97.7203807381404
97.8314084389263
97.7543441293413
97.7350883634647
97.719905365544
97.7042733537173
97.7678066916463
97.7958597124733
97.765673265834
97.8024658062985
97.7205172047631
97.7229591822608
97.7444497804385
97.7311960906109
97.6239222612803
97.6233434157603
97.666469311356
97.6676176338467
97.7018065271502
97.7698900078568
97.7951578483972
97.8102506100952
97.7763897001091
97.8270897061189
97.765541691198
97.7372935000076
97.7232436261876
97.7457329330804
97.6883698858372
97.6988903523866
97.6341039036727
97.4567002083311
97.5251876339401
97.6477029033822
97.7265032125089
97.8517454670474
97.865951603951
97.7369489117681
97.5637588576092
97.4519919406648
97.4006568747568
97.47181742329
97.6915128894775
97.9275352978619
97.8187039220608
97.607165502864
97.6842464083125
97.7480357692604
97.6623937807195
97.6001676083852
97.5616153500501
97.5210358039546
97.6060558909247
97.7119127720459
97.7255938876058
97.7522641264088
97.49584323071
97.5375152384707
97.6141250142847
97.6776454142743
97.5858953076732
97.6643110178161
97.7599177321325
97.7659286477184
97.5874596932455
97.3530339352251
97.3130648084254
97.4914929728979
97.7796633945719
97.8746248551485
97.7550167550398
97.5988424508157
97.5654376691545
97.4959830611038
97.3704230589695
97.4909156014427
97.6226152533822
97.612601589625
97.6787349810527
97.7487002621238
97.776600234919
97.7366529804361
97.5256397784991
97.4356312026001
97.5300441376972
97.5009893321571
97.5907040095744
97.7445809277198
97.8905080903069
97.7686843789673
97.590944213022
97.6376806094751
97.6259245665634
97.4649756926389
97.5235734247134
97.6416599983837
97.6466392473244
97.6874455211631
97.7728907286152
97.7455930789334
97.776489660843
97.7570626591832
97.6147662173513
97.6519592661799
97.6173353520416
97.470129273811
97.4877359532427
97.6936604206588
97.8214576467786
97.661883385049
97.5052322057439
97.5691247740038
97.5204555035375
97.5554756893965
97.6700703031624
97.663151318761
97.5785967693842
97.5968043240855
97.6916062974799
97.5608756181823
97.3094417548109
97.2010605386666
97.6001527813683
97.5174194586052
97.3773965070287
97.4668146711192
97.8022561753371
97.7232134970948
97.4574924037188
97.4039028693441
97.4425202081476
97.7614899851201
97.8529369688555
97.8198816204714
97.6956558561352
97.5796334598144
97.5769979278044
97.6350529712637
97.6945727880515
97.6922730598313
97.7139730104253
97.6041488776725
97.3376174284092
97.4548171017979
97.7607311700148
97.8288931831264
97.7576677705321
97.7299871129713
97.6659904704402
97.6070302233885
97.593170423123
97.6417807210179
97.6861096419498
97.4762975425302
97.2707217023018
97.4555859653634
97.5802971884839
97.7139211083823
97.7381344832334
97.7131238778952
97.3815427986956
97.2624771857874
97.4109986661358
97.4187621546187
97.3241263831216
97.3898404831578
97.5414162701222
97.6883517217542
97.7852238137928
97.7110700115287
97.5267688269372
97.4397546869998
97.5173743380649
97.5189234854236
97.2923738916153
96.9541133182536
97.0808088502879
97.4902228139168
97.6219206665252
97.5700670657376
97.4742780005251
97.5579812628879
97.5649393878328
97.4734331840895
97.4407704091617
97.3036251702126
97.1949294251006
97.3565854944543
97.7669962721297
97.7928002479728
97.5140641572632
97.2782140400322
97.2045636865185
97.3489391176191
97.4596724358458
97.4131615515255
97.3464469545879
97.2601544937681
97.1868948320273
97.3733749106743
97.4920510995959
97.5592790857756
97.7119750945303
97.7310688271563
97.5133386029029
97.4277835708138
97.590827858993
97.6178882833943
97.4058207727901
97.340289515026
97.512609288898
97.6133740716105
97.552019422164
97.4896855044864
97.5176906042187
97.606286681092
97.6204438342335
97.6485476269246
97.4934099240245
97.2911006530911
97.1772345302317
97.2837450569148
97.4606598401847
97.5862662259634
97.6118239361973
97.6424969510131
97.4964925458093
97.360707830584
97.4440979802093
97.497033445108
97.4069640754897
97.4659454162962
97.5266400005769
97.5656688139889
97.6718674397531
97.6087530412932
97.4102453194387
97.3553747831443
97.4531544668785
97.5047608925132
97.4294124525029
97.4290417649962
97.4932348046773
97.5256788443903
97.6065470079779
97.6814493902139
97.6032327046847
97.6102024157864
97.5982592804287
97.567398192294
97.5793506262919
97.6828193722525
97.669387503706
97.5305581177645
97.5042800772953
97.5628674745785
97.556225198817
97.5337521487789
97.5377864230453
97.5751120105345
97.5910524405127
97.5765887331044
97.5432996128573
97.6564283658932
97.6607051749924
97.4887314669053
97.4236512676432
97.6451792680569
97.7123115285438
97.6376633290722
97.6571255879867
97.6046510955784
97.4403701738084
97.4247980981059
97.4867514929086
97.5489094525658
97.5019549282547
97.4467077319062
97.5152523383977
97.6228882036821
97.6110865188945
97.5359563908875
97.4194049807778
97.4149524101286
97.4967745676467
97.4451241358945
97.3436949537694
97.3568369547314
97.2892958531603
97.2143844536023
97.2165486553073
97.2557968091092
97.2447829352624
97.1236980553422
97.0539981962021
97.1515710090432
97.2477486606234
97.2035590854747
97.1025487336979
97.1077284728685
97.1649974843831
97.2028816769639
97.2056482583168
97.2209318341204
97.2417310721845
97.3740263263004
97.494483816921
97.4034881715715
97.3566349302051
97.445647618308
97.4430801065261
97.4774853320847
97.4514340966382
97.4269065032059
97.4692105112922
97.578929789026
97.6244926698885
97.5824692165731
97.4888348930372
97.4805340028428
97.5253796714523
97.5285021586541
97.5711432245379
97.6215238648696
97.5710268343854
97.5061451425772
97.481598659888
97.5185353530844
97.4538162796111
97.3359918512637
97.3559191681681
97.4840771422299
97.4898347570458
97.387887712124
97.3252688613332
97.4225905589982
97.5267751959325
97.5181913310858
97.515930542491
97.5042043566888
97.4565869559852
97.4612719888114
97.4758027470243
97.4623384000384
97.4782980784359
97.4894105847569
97.4594910757587
97.4435466065236
97.3159681996229
97.3022986430346
97.454318182139
97.4984880082969
97.4423284515272
97.480346978324
97.5365317789401
97.5039804894566
97.391672988126
97.3377097179548
97.3968293218153
97.4153791659712
97.4191022224226
97.4897818094523
97.4562289819601
97.4211252319546
97.4000654497617
97.3533035350213
97.3976316617488
97.5160126022876
97.5009344165666
97.4542908092678
97.4667503486442
97.4840924177351
97.4349813359244
97.3773559184148
97.3765194115976
97.3625843889249
97.3633386699169
97.4853200838235
97.529875895101
97.4704241456176
97.4485845464337
97.4629888948756
97.418017999439
97.4365664797573
97.4596257566114
97.4287043374838
97.3991911983578
97.4107224016071
97.4494230292132
97.4985227502137
97.4799854357462
97.4681733151613
97.4946697165257
97.4561984321619
97.3698286867065
97.3618916478192
97.4123221568126
97.4133835790976
97.3342245341507
97.3220811918333
97.3329145988508
97.3160048685331
97.3281005803071
97.3997728493339
97.4161313457751
97.3687571949687
97.3266699482066
97.3364214166773
97.3740894450212
97.3666894415313
97.3945000108618
97.4519852574529
97.3653032595206
97.3680338942988
97.3620636182054
97.3173670495643
97.3635585333746
97.3889838846785
97.3623139354736
97.3317268132116
97.2957564684354
97.2899646198254
97.3551551449674
97.4285891060224
97.4254835039539
97.417215656439
97.4018532240113
97.3584103448204
97.285754744258
97.2645326535059
97.3113086667781
97.3225001356407
97.2847647518897
97.2955885227102
97.3341539739267
97.3487554519831
97.3199617987943
97.3299857652272
97.3092334107116
97.2757130104471
97.2730981868194
97.286184668779
97.3222635523511
97.3625264230681
97.3113628515508
97.2978282434782
97.3271877396081
97.2494980094554
97.1735488797955
97.2081780397643
97.2117376410397
97.2266456234456
97.2882272136607
97.255145763661
97.1851086802876
97.2020738497212
97.1876275031182
97.1727365206046
97.1466781993512
97.1178263822966
97.100716484918
97.0771133850822
97.0462790507138
97.0667287892885
97.1308214456374
97.1318367694083
97.1046287393891
97.1057921271244
97.0573178855925
96.9869466061597
96.9894946850639
97.0648256147761
97.0455233325154
96.9964114965737
97.0149905017354
97.0309179764736
97.0177159773802
96.9978499752237
96.9474772772464
96.8782220277517
96.8455173474481
96.903248762074
96.9094559631827
96.8114084407397
96.8019778936804
96.930871925797
96.9395533712855
96.8206996343433
96.7572276544404
96.7826253453558
96.8024264417235
96.8390718514141
96.8224811523088
96.8007803990228
96.8153455377019
96.8070298844284
96.806917286953
96.8230699111117
96.8512225923236
96.9663943702221
97.0467562035011
97.01083641651
96.9778450753892
97.0121078361482
97.0462663149623
97.0783939274987
97.0746812282082
97.0756864203467
97.0883429261248
97.0512539388927
96.9976725084336
96.9881308249308
96.9320191156077
96.8848674476585
96.8640409459702
96.8138070488268
96.7553572980304
96.6760876965124
96.6565129252702
96.6858223211803
96.6205855278852
96.5408038967906
96.4996645343134
96.4644076334042
96.3841245319709
96.3097776050618
96.2690579412632
96.276708422474
96.3139036899638
96.3557452720463
96.3297125946033
96.1979720267052
96.0702270254908
96.0005912386494
95.9448747267062
95.8425654264333
95.6962748705642
95.6114557906463
95.5293066898537
95.3537399516328
95.1695216203975
95.0870849321003
95.0841690624515
95.0676288313612
95.0461713212836
95.0906093834673
95.1390047723449
95.2034688241182
95.3099637128975
95.3956422143074
95.4561220817865
95.5686898758771
95.6895470003955
95.8156036892086
95.9199832028301
96.0159896903459
96.0894462738898
96.1502592285106
96.2645923191565
96.3348476301999
96.377585774602
96.4354109502802
96.4574172317408
96.5038050073225
96.5170389024965
96.4723242667337
96.4055289602866
96.3685073204549
96.3523100707664
96.3004826270301
96.222794718176
96.1429826499665
96.0777872259525
96.0286068281958
95.9905037479247
95.9861921248804
95.9840906946555
96.0336681092768
96.1033804820416
96.105675985268
96.111826405576
96.2005863162701
96.2244895042566
96.1864227523803
96.1995660004126
96.2223300206083
96.2492079495962
96.3149195789027
96.2972865161699
96.2899142758739
96.3103022675267
96.2545285332707
96.2491970777176
96.3475475248439
96.4028006803158
96.3786437554297
96.3538780324584
96.3623989723331
96.3957615161797
96.4598796980919
96.4553460594665
96.423928405973
96.4724112912639
96.4858786520943
96.4703658396039
96.5265530675705
96.5513122200914
96.5598914501237
96.6006183202468
96.5885571867828
96.5518226158411
96.606767557777
96.6694120327014
96.688962976151
96.715819095985
96.7306474080946
96.7399520221667
96.7505506583478
96.7475852788446
96.7417016656313
96.7134188555369
96.7302175346854
96.7439231303967
96.7041943923127
96.6937009606094
96.7206864820975
96.7269593254351
96.7193153524859
96.7260909681076
96.683658945114
96.622775465637
96.6578913123529
96.7032248435299
96.7108391523424
96.711608801761
96.7076757597512
96.7246364438272
96.7523300082353
96.7645918657919
96.7629820013518
96.7690375562199
96.7992890438227
96.8344064715686
96.8517554979703
96.8057897648413
96.7703625113336
96.787198575954
96.801140757279
96.7921678233224
96.7980298589863
96.8094451529563
96.7826730060707
96.7677508373891
96.8127896429264
96.854664813752
96.8620125396366
96.8602606330174
96.8555236878508
96.8168978893718
96.7968203738603
96.8293500221119
96.8552228936699
96.795991167583
96.7512269498306
96.7929276094049
96.8336930886341
96.8515527077393
96.8435331782333
96.8306099924317
96.8552335340683
96.8517312924806
96.8211770417692
96.8155157400556
96.8423414512195
96.8699781578675
96.8873819864065
96.8811129597503
96.8539132569942
96.8510917760949
96.8848873466329
96.908248144397
96.9128772672111
96.8816914201691
96.863602538328
96.886518802923
96.8911538389
96.8883095432634
96.9042315096401
96.9138075793366
96.913319426184
96.891523341104
96.8917235483532
96.8853213224925
96.874362731847
96.883726535407
96.8768459887041
96.8756335081236
96.8969992714728
96.9064128809256
96.881418631028
96.862210692464
96.8730280175305
96.8931905272102
96.9128130009612
96.8727536858085
96.8478669849333
96.8639367237021
96.8221647016948
96.7924318305124
96.8178857173442
96.7895342318114
96.7652520232406
96.7885711671014
96.7981303041942
96.7975095363047
96.8198568744
96.8431335454563
96.8326121739602
96.8139197973135
96.8095266825171
96.8116723767711
96.8215529946612
96.8161030874456
96.8043388974675
96.8189043057231
96.854992802778
96.8792345986895
96.8693278732315
96.8578400464641
96.8882337314168
96.9235576433344
96.9442777623805
96.9204516157699
96.8891311388258
96.8844338039059
96.8851068616218
96.8681039023064
96.9287915550154
97.0017091384286
96.9409856113579
96.8896150814558
96.9432498021822
96.9782677345631
96.9395240436411
96.8699998909154
96.8822771777513
96.929828335713
96.9224027655737
96.9551640676823
97.0257204979267
97.0065850069874
96.9674762002869
96.960119008994
96.9870600695348
96.9783127551087
96.9926226588699
97.0375550350238
96.9792755580176
96.9228652437794
96.8868095013885
96.8817178282454
96.9391537822204
96.9810018719417
96.9902453722688
96.9508520579926
96.9712986528193
97.0305854288187
97.0180708305056
96.9706695410736
96.989147994555
96.9108462378
96.8855759359174
96.9871358366159
96.9876785018502
96.9406437568797
96.9789500041827
96.9879105722899
96.9816038238344
97.0156383094971
97.0453031354763
97.0338926907491
96.9496774573808
96.9185441526722
96.9911780538104
97.0198401834864
96.9545695159787
96.9289707000684
96.9889416095778
97.0456214025895
97.0048905900983
96.9371791542247
96.9588453439672
96.9826825132975
96.9709843007686
96.982120369576
96.9845515246856
96.9593066655547
96.9477077264421
96.9823331024494
96.9938813470531
96.992869826736
97.0717440600959
97.0930362893489
96.9876027687546
96.9140190827466
96.988050927735
97.0484924638223
97.0332436292954
97.0431189309013
97.0298262601499
97.0108577749964
97.0072160948663
96.9837395821462
97.0147944192448
97.0626719407903
97.1001513694891
97.0307667969123
97.0041884836775
97.1232030616032
97.1314878452048
97.0183359729238
97.0003641482561
96.9889549004759
96.9508406122652
96.9821487376098
96.9841748473844
96.9722128693713
97.0349060142235
97.0772084771032
97.0533453559554
97.0448557682921
97.0302635646991
96.9883680317229
96.982768632373
96.9956591188004
97.0114172524196
97.0197155290616
97.0073356057032
97.0027579747134
97.0218692295153
97.0174021606512
96.9658559091651
96.9056773150905
96.9143234183543
96.960465401493
96.9776273920782
96.9879776940143
97.0379905222014
97.0436329389328
96.9474794654744
96.9205334466315
96.8950644251609
96.8530853439713
96.9141247216733
96.9267994456184
96.9009490521619
96.9014853592762
96.8591565567451
96.8028755465466
96.7896777244368
96.8310868757325
96.9575625758504
97.0479861012523
96.9842804338302
96.9088057291148
97.0556142397489
97.1095635402872
97.0605079283429
97.0592874535582
97.0752609456286
97.135947848187
97.1438301666055
97.1004353867026
97.1035107806155
97.0601482327326
96.8707790087122
96.7959867666338
96.8717593065291
96.9398005021189
97.0690466595173
97.1205980078905
97.103203283063
97.1134333880007
97.0284388682512
97.0147292232446
97.120565810412
97.0275224962109
96.8161550701896
96.6953396600819
96.793981249805
96.9433064823056
96.9488784642841
96.9193668685405
96.9451104816028
96.9742653857791
96.9800119966341
97.0086047041462
97.0384098282267
97.0399476237897
97.0583628262928
97.0843780838976
97.0327881781838
97.0037442923502
97.010251724347
97.0006588184191
96.9942694686275
96.9602564451621
96.9464438450581
96.9661445121628
96.9677112402932
96.9992069964672
97.0549386232706
97.0856107501326
97.1230770233242
97.2187184513957
97.2761293542447
97.2470289828976
97.3362870555122
97.4209842090234
97.4355495662476
97.4414476160442
97.3945194177369
97.2803146787144
97.1560614437969
97.2116201886607
97.4108423309821
97.4373452665666
97.4167957410876
97.3542802295766
97.2570074240598
97.32782088269
97.5027099915584
97.6131265938167
97.6297386688324
97.6114083914981
97.6586618703296
97.5571988179591
97.4963746471293
97.6266576211055
97.6919937888853
97.6324295376214
97.7471419820795
97.8602616322237
97.7879835330276
97.7537806101607
97.671946245571
97.732194157884
97.8696581104019
97.9036109603514
97.9717713132931
97.9899897036757
97.7908669568409
97.5845076179658
97.6781220505367
97.9502379918712
97.9536386610588
97.8289533586604
98.0288752252335
98.3891790869597
98.2791885829874
98.0469401373472
98.1393541704758
98.3023730972436
98.2245939133813
98.1991450660365
98.3995507770856
98.0847451293374
97.9587388223482
98.3930316264514
98.1895971564487
98.0728735376347
98.3044891953647
98.5422194624199
98.6488666816763
98.6710320974167
98.6539529907767
98.4707903253645
98.7056867871114
98.8669593201851
98.4856818601161
98.3227082764722
98.3265718222819
98.1783553777734
98.0527345598805
97.9190945211964
97.9264605780756
98.0851287364327
98.1557148952264
98.0245964111392
97.8697483478569
97.9244214638016
98.0244637550212
98.0098737357263
97.7702482083338
97.6027537496073
97.531732630336
97.4289186714806
97.4281917192558
97.5288508836629
97.4864913144507
97.4130607628654
97.4299674898732
97.3716679684238
97.3556246113446
97.4387612772388
97.4490874816633
97.5320902671592
97.6120707515053
97.5364661252558
97.3902526794905
97.4203176243159
97.6363263949621
97.6357523251808
97.5784836021744
97.5724712852862
97.5292407939176
97.5098743039011
97.5417809908325
97.4643443172694
97.3638160736634
97.5329248751218
97.7140933087278
97.7453653721048
97.7498215018112
97.7269756154265
97.8155876246278
98.085006537499
98.1485168021794
98.1267646737469
98.0207604869316
97.937366640074
98.0770502183556
98.1289898765672
98.0543108632137
98.044819993622
98.1812842204539
98.3415955241374
98.4978335163477
98.6327404299428
98.9790690488283
99.027601382457
98.4954619405256
98.3734588738035
98.6243732572818
98.6677753047645
98.5539447345454
98.4799221814301
98.3075771019073
98.3674977003351
98.5069331161899
98.346784094717
98.3495367460449
98.7299809990497
98.9723577208735
98.919774584947
98.5407980393383
98.2052604210311
98.1411355011096
98.0941104206682
98.1694283738555
98.1869740353033
98.1056988118504
98.2377844964318
98.4442616890109
98.5159957357555
98.3162280758298
98.138101740196
98.2953536253608
98.3881619968006
98.4003581400304
98.466448274361
98.2218226837575
97.9598311445535
98.3583004529519
98.9728984002198
98.9613977732078
98.8635516084787
98.6440937133773
98.2781150728782
98.0756182297208
98.0298818587694
98.0516163100876
98.1400992923028
98.0712884425818
97.9072093348456
97.8552634502024
98.0324218325539
97.9307513871081
97.7902513596508
97.8209970381567
97.6187569322551
97.5089487136348
97.6051991301814
97.8005211488858
97.9147714693453
97.841616340357
97.8069149424267
97.8376424075891
97.829430306582
97.7301121832662
97.724135036617
97.9147427981733
97.9415568267026
97.6965447954799
97.7219386802423
97.8001439910546
97.8961740525639
98.0108432130141
98.0635296416781
97.9721443039515
97.8745217435169
97.9721489786802
98.0291896527183
98.0465358583201
97.9951844024915
97.9630485354498
97.9350402818624
97.8979795282576
97.9286656677936
97.9380047723176
97.9114477211593
98.0076595658108
98.1035680159692
98.0562616469821
97.9876970078012
98.000716071502
98.1021990980063
98.1163737830449
98.1212581298003
98.1199040557462
98.16210558363
98.0542336329892
97.951879916976
97.9980906113438
97.9852653276248
98.0027370558464
98.0404942465672
98.0381181711782
98.0579287305883
98.0602648176166
98.010861164815
97.9479683385604
97.9302201155576
97.8786862650303
97.8212004673647
97.732140377668
97.8901462172129
97.8817149938132
97.8055096221122
97.7980100639052
97.7578083195329
97.680163680835
97.6002631318434
97.4786888120289
97.537236928895
97.5001525075038
97.5723634982669
97.5403803327823
97.5370296369074
97.6241396141744
97.6894507340959
97.6830250555088
97.6159910754243
97.5182414475118
97.5763844311068
97.6380976254895
97.6292503540514
97.5231821050118
97.5173229673747
97.6184806138027
97.6612093967507
97.600778912418
97.5588002905213
97.4700292937596
97.6538643280379
97.769489708594
97.7752840554183
97.6998735120164
97.7506297903741
97.7119180964265
97.7804749066436
97.7548385028709
97.6943827855493
97.5714124799041
97.4718937293049
97.5937161382043
97.5868873247
97.6748732896391
97.6125301654198
97.4393701862127
97.4091182683153
97.3097151929375
97.0678646904859
96.9434021725123
96.5687104997803
96.0111438512568
95.4439240926355
94.6373051560632
93.6384343269174
92.2219645979844
90.6542854712536
88.8080332361981
87.008285466155
85.3968056662141
83.0313874006913
81.2754385053959
79.8986920291044
78.3810855748131
76.9514744634671
75.4156965868421
73.8201490116587
72.4167722220368
70.6587736933518
68.4630773525956
67.2931173879051
66.9834124115663
67.0709649487928
67.3782666113941
67.8523538245162
68.5736272856445
69.9846270907804
70.9650281399646
71.6282876239288
74.2269732448329
75.2611031693478
76.7985098300712
78.5342637555218
78.7793759062596
79.2119653646003
79.8033319649862
79.5341174725996
79.9414580768276
82.4529647693759
83.019871413987
83.2357351095205
83.0845379878243
83.8431335739158
84.9766647642314
84.8948352658209
85.4868463513641
86.9114392633784
87.1997340873538
86.9595801431409
87.7111672758545
88.608112327909
88.7409468607894
88.2877212632758
87.0493735640095
88.7683659557149
90.9652576859863
90.2342950607543
89.6790180385689
90.8778124752388
91.4324463115158
91.2624516081176
91.0120162604503
90.5664167731642
90.642376571625
92.0589920595136
92.4088086741351
92.0949880305638
91.9024079350675
92.1383462161596
92.1163900276028
92.3461913568258
92.8116571931036
92.4929203780653
91.9999411613621
92.4405893186875
92.7091742309939
92.5175654681872
92.5227329043002
92.7623037625139
93.0980415304443
93.2513810297683
93.4267551306658
93.6457848724241
93.8592598018102
93.929892135554
94.0237122527004
94.136454569549
94.208658454846
94.1538420004944
94.0787468377625
93.8837011298687
93.639943648075
93.1704851124298
92.6261423799008
92.0015309749656
91.9996767471504
93.1180511839212
93.5090805733389
93.3460199365743
93.8377324676396
94.3821662255483
94.4090513722652
94.4961499702879
94.0267272083621
93.2576676023399
94.6952705861349
95.2590176564847
95.1701480037967
95.1803243267916
95.0151983890475
95.2303862125369
95.093028925087
94.8635508839308
94.741942299096
94.6456404841432
95.3389091344095
95.9043650671965
95.5786746996249
95.2078545025435
95.4677779399242
95.4589783701266
95.230877139553
95.0791795320114
95.125480749772
94.9158866940719
95.344074058862
95.5141234350697
95.3667427534888
95.6091690127251
95.4062430850279
94.8456302571452
93.7720664956418
91.9276933339766
91.2845122650213
92.0071883065507
92.7135240039662
93.4792157204585
94.2956275322251
95.1962823995497
95.7960972252535
95.7235828244998
95.4101441119145
95.4743685858916
95.5682252648631
95.4892670834037
95.145555222487
94.7474292048475
94.4612925537036
93.9865930228884
93.4212553418807
92.738124963438
92.4405888203657
92.8896826237451
93.0719308646952
93.070602070943
93.1572239107774
93.3659721583657
92.9902799244622
92.3286218395269
91.9899670563689
92.6412716586178
92.666078458481
92.6085099304856
92.5517649088567
92.6945291664815
93.0344229610308
93.2014106249305
93.2866754806075
93.3627697084051
93.2336856465469
93.4513972930736
94.2475155284796
94.5662157802573
94.7878876945332
95.1556955276721
95.4743842096327
95.4506555194288
95.359647038203
95.117842975184
94.3350518202928
93.3800335880761
92.0025994428165
89.8784132503369
87.2906707223385
85.044894085687
84.049013859848
84.2925471197253
85.7668725862678
87.7001886165432
88.9634129868886
89.9869363854731
91.0449881643435
91.5996071819135
92.2570793929195
92.6305924961793
92.6057180820232
92.4905512751614
92.6294485346851
92.789722598596
92.7962625897064
92.788657833173
92.7310096700727
92.6616694453306
92.4308516419579
92.3779128513868
92.3822562329174
92.3702961815302
92.657757163405
93.0846385463493
93.3948017730324
93.8800061597559
94.3531396380484
94.5120783256471
94.4353223688997
94.2165993999753
93.8040512118091
93.0473266344867
91.8135465323305
90.0472417082016
87.7508259310444
85.3308220005022
83.3496952481377
82.4984639469573
83.3820357250011
85.3986075132326
87.8382056732137
90.1783171577141
92.0085545690324
93.1503111340445
93.7293507290348
93.9393097064199
93.9294110008691
93.7453809148719
93.5054359556267
93.2992491265174
93.0374763227212
92.6850234861528
92.3147281131466
91.9185019062743
91.4658971629514
91.0468479683513
90.6196321831502
90.1067017770392
89.4390029809274
88.6193436905942
87.6914412985101
86.724556024143
85.7512825833429
84.7959044622471
83.8508517193241
82.9447525781575
82.0588675471537
81.1657400047801
80.2813949136615
79.3878055434555
78.4936162482358
77.6268243046763
76.7518085403331
75.8429988299025
74.8935007593368
73.9194574312408
72.915660382084
71.9326484992615
71.0416733818313
70.2617327115679
69.6499375207879
69.1583503961572
68.6872688731759
68.2206582783953
67.7062467214663
67.1393115177985
66.5223199572784
65.9100837050666
65.3753486121847
64.9365373632814
64.6227474655691
64.5011907540153
64.5771996494691
64.8339488441886
65.2688384385329
65.8379676374511
66.4910887613246
67.1704246235242
67.8236029262522
68.4686826340973
69.1380098976434
69.8944720138308
70.7640879500822
71.7157766610913
72.6839834041803
73.6312302428903
74.5619218150574
75.4535618667551
76.3180833389758
77.1829264385909
78.0476748496548
78.9171499428675
79.7938753137777
80.6685410388774
81.5138658400897
82.3348544467484
83.106837528923
83.801670153277
84.4150277041614
84.9569556953086
85.3913286140024
85.695304714205
85.8621380819787
85.907138796345
85.9244353236432
85.9763760869063
86.1786521028733
86.6240745663604
87.2829787564339
88.0505939375593
88.7471219801707
89.2550705996304
89.5828678266698
89.7900847995276
89.8975990626936
89.9080231304647
89.820665845909
89.6046176683822
89.2583105572613
88.8208112977655
88.2955228661968
87.6592423906296
86.8674996239917
85.9008614731229
84.7431999008854
83.3738489055089
81.7932209588999
80.0673675872167
78.3179756920683
76.6867154368573
75.3019987423573
74.1648774168293
73.2043255645692
72.3906823021608
71.6932507075008
71.166501213795
70.8933427826061
70.859634155923
70.9307692111256
70.9644843663348
70.8354483209157
70.4436386973095
69.7800223029996
68.9344457077726
68.0455505202481
67.2377350674965
66.5617101740515
66.0134389632002
65.6230088568726
65.4128673565941
65.331181598869
65.3363535768769
65.4188906651488
65.5689785178138
65.7827551424963
66.0681443238678
66.479638313086
67.0479751239656
67.7600820431111
68.5733966591091
69.4413821365996
70.3157992569073
71.1715212398512
72.0093872205952
72.804500365719
73.5629157897592
74.278470737876
74.9349914487561
75.5043678024372
75.96933994108
76.3393193922679
76.5935426847735
76.7473027388236
76.8372724489314
76.8690515357474
76.9211951945286
77.0332086428891
77.2123403618214
77.5130234673049
77.9194332708653
78.4041870137971
78.9309529622551
79.4990936204085
80.0148226009186
80.1186151600852
79.1330871957515
76.8705056930048
74.3196729359591
72.1948290086538
70.3135734138343
68.970714163402
68.9012442941174
70.1700811373071
71.9952728664474
73.632807669984
74.9543372036256
76.0021724698548
76.8154773450355
77.4625546017228
77.9988808331415
78.4951909371176
78.9457932429515
79.3149648783501
79.6019951200372
79.818245869055
79.9812048088049
80.1147711462092
80.277539414122
80.4202963373819
80.4423817312141
80.293941690871
79.9175545953688
79.3598286822147
78.7376571976576
78.1874690661004
77.8943883574566
77.9205107737446
78.1999327600536
78.6559539061307
79.1497515854863
79.6316060427062
80.1077723151051
80.559373378561
80.9567745010794
81.3137753354179
81.6368847449762
81.9419137666845
82.2241409036857
82.4959172170213
82.7343900185905
82.9454236198559
83.1332833427176
83.3083333120246
83.4869302597084
83.7023709884898
83.8991772919826
84.0621280982111
84.2343766151534
84.4074824557551
84.5867870179526
84.74029403651
84.9314645735035
85.1076220539731
85.2267069543013
85.304775094705
85.3799742432557
85.4532808513205
85.4349563774564
85.3624683601328
85.2289982893022
85.0005789397943
84.7629382843059
84.5623426988021
84.4369221525719
84.4313639769986
84.4521355966647
84.550393033763
84.7284681819494
84.8635440757719
84.9652146111604
84.9520013289084
84.6973575404015
84.1925498574191
83.4627722467807
82.4756897145864
81.2516296392376
79.6651137640903
77.4021676768294
75.2981158896557
75.2641687149358
76.9486890625305
78.6080083289309
79.7248474584902
80.4251905608565
80.7987347103085
81.0021442182051
81.1052649699402
81.0542581826154
80.9257116358769
80.6903303597468
80.2569903728378
79.8711581977608
79.7280384968701
79.8818878675026
80.2201423257122
80.6192630659064
81.0586325692684
81.5180708787477
81.9665962920335
82.3703790094064
82.7863307704546
83.162434112204
83.4484279746587
83.7188277160101
84.0187438010094
84.3247669386077
84.5595525833717
84.6900957757481
84.7923992221409
84.9028259318263
85.0167389401825
85.1563059628637
85.25394675446
85.3304644425401
85.4086885939483
85.5397119187892
85.7711294561572
85.8460087286937
85.5886499491638
84.8193400656896
83.9190631820415
83.6408400360018
84.0593351256405
84.6503438151158
85.3073524534401
85.9122432907354
86.3540777372119
86.7850229623637
87.2408312614899
87.6353384179052
87.9201495207041
88.252273042167
88.5871085391177
89.0090910194116
89.4665013544851
89.7872078205954
90.1472983511206
90.530120798149
90.8508287360385
91.1935907451222
91.5394357419855
91.864267278608
92.1464321159567
92.4972869944518
92.8822806164142
93.0516145686527
92.9775944058411
92.5264088342508
91.29132027444
89.1276866386589
86.1679809808164
82.7344991617998
79.0582409784203
75.499346039172
72.1197938169828
68.7126663918445
65.3034133124673
62.3443770811436
60.7319131534719
60.5620817649758
61.3464520649213
62.4511074121876
63.6563545082055
64.9584333862928
66.1111203840446
67.0743507361697
67.9429765697055
68.8437014437654
69.6950499228878
70.373275323646
71.3453073856384
72.4957558839969
73.5131594979891
74.330248901069
75.0420451934682
75.6454023843656
76.1230980388299
76.4811593149433
76.8591112757779
77.1130655952152
77.4707465506151
77.7626636410854
77.8086655344715
78.079641175
78.5644120812706
78.9571900100762
79.3573221014362
79.7666500553319
80.4516670140864
80.3138220063212
80.3122442872376
80.6466150847117
80.9455799172325
81.0847662851835
81.0405394340433
80.9174193990657
81.071325456007
81.4378744120063
