1798
3999.43349933624
650.420452594757
1
128
4
95.6716509054201
95.6562254770191
95.7156790319584
95.7286952928672
95.7039125612169
95.7189954356485
95.7388912501092
95.7458685995535
95.7369272196509
95.6898831626516
95.6916305396832
95.7479015914227
95.7601667084178
95.724163618846
95.6919416918741
95.7376616386443
95.7421971282687
95.6892041770527
95.6646443612056
95.6422589275582
95.6949881050686
95.7796546452708
95.8498597950192
95.8559911560923
95.7729368173905
95.6656850539053
95.6026297429546
95.6862889700896
95.7294778047697
95.6915819478369
95.7798144632475
95.8490909445802
95.7685841737765
95.6764213463902
95.6682439868991
95.7003852634793
95.7502308683831
95.7719614232546
95.6722549506591
95.5866169031098
95.6954317524214
95.7853364552576
95.7146728843511
95.7352887327759
95.9340462162228
95.960319431986
95.8667013733429
95.8082034049622
95.7116738972808
95.564288967198
95.4782756016676
95.5595739424445
95.6709970717782
95.8798279878294
96.1000317979735
96.0059389733121
95.6857658784683
95.6578842996427
95.846982920983
95.6471408088188
95.471021277182
95.7198201892606
95.7557909231313
95.7780228016508
96.0479983821526
95.9717356442171
95.787167840475
95.709772838645
95.5722921331806
95.8285705702133
95.9793588035801
95.8147361620839
95.8530317345417
95.9771231870424
96.0065938140005
95.9142583112526
95.4732814119399
95.0426741924772
95.6175283575761
96.2172943815959
96.2533952364948
96.0538099216849
95.8290897275738
95.7190024838409
95.5517005244313
95.427321237501
95.680737652172
95.9968798412124
96.0395400308871
96.0398518173481
96.0663421002651
95.9668517199618
95.9319434294653
95.7815601888747
95.5130758779039
95.6999483470219
95.7926007928317
95.6222327330447
95.8995248005327
96.1059957428967
96.0623993029718
95.8696256363024
95.6352472176848
95.7365820888371
95.6571023250866
95.4929673029559
95.8699329271599
96.0278341623992
95.9569340175065
95.9903759045223
95.9919120050696
95.8863720369737
95.8130014980586
95.7887017513704
95.715137651853
95.6969966627715
95.6613077883033
95.6979238739325
95.8865798735557
95.9953506755983
95.9743555528133
95.8070677953254
95.6726548946366
95.6784367490335
95.7212457481399
95.895254379334
95.9403953998874
95.7815976721597
95.6782675852094
95.813720106749
95.8774438040638
95.6289739312456
95.4165765024271
95.7107878647251
95.9947367477153
95.7364052928231
95.8194060725251
96.1926338611632
96.1353631827287
95.9463358692295
95.7210716563332
95.683536756729
95.9604625160873
96.2325322472839
96.1725781007068
95.9189500358718
95.832042310616
95.8532087792166
95.8552120084615
95.9056320664581
96.0655818299043
96.0237281884614
95.7027320347415
95.4894315725149
95.6143138943416
95.9305750129864
96.1362714142449
96.0790395620273
95.8570373635168
95.8059568707683
95.9061371298759
95.9102938139742
95.9450716859575
95.9050842856373
95.7386053046947
95.6244616386242
95.8157406932333
96.0269382394551
96.0402127137767
95.9943961767859
95.8921601263662
95.7201682655382
95.4243544066791
95.4811503155629
95.8421378007969
95.7406471174238
95.8012959059182
96.1858975676327
96.2243008254593
96.0214079889411
95.8378759667311
95.7463597100006
95.6301408155327
95.5151560187382
95.6215206370322
95.5955001017318
95.3151746444066
95.2932442067421
95.7518958035842
96.1123076461732
96.0944668932594
95.9421298519377
95.848108764216
95.7660911717216
95.608922087345
95.5089836943674
95.5021866175871
95.2511534012019
95.2566458828176
95.7349134377183
95.8970916138817
95.852098912472
95.6882150517523
95.5587939033192
95.7050177756789
95.7347800347183
95.6330741222793
95.7426955421671
95.8546117701921
95.8800569977383
95.9091718167687
95.9092390508545
95.8518877560503
95.7025632921035
95.6012890053515
95.6478966074669
95.8105806104925
95.9550798695711
95.8119322352492
95.6116902148698
95.6634591209338
95.9305468814597
96.1268010063398
96.0634137751128
95.9259293058815
95.841086730155
95.8305990507156
95.8348513142567
95.7577161289887
95.6721812785714
95.5201335139117
95.5308037325892
95.8124368495576
95.8736169471763
95.8214251147061
95.8613823336302
95.9345933843239
95.8870624659529
95.7709327558209
95.777607268387
95.7631010910294
95.6370073869752
95.6746149656411
95.7834758014921
95.7506866560949
95.7367989292299
95.8851142421427
95.998759543514
95.9879855865062
95.8242020437396
95.5987609699093
95.5610020648089
95.5786378064752
95.6160809655776
95.7754113597025
95.9250139305834
95.9619125562517
95.9778935576546
95.9510152681534
95.864675754823
95.7572099715881
95.6857810553096
95.8350752793095
95.9644840412249
95.8579327878447
95.8509304931067
95.8754058085111
95.9195264990139
96.0420505583762
95.9914735612075
95.8949674367602
95.9072501737772
95.9879545892367
96.0136248332616
95.9346530882392
95.8519361556288
95.8620617633795
95.949112141344
96.0504258339265
96.0455488695339
95.9962102012338
95.9594346030915
95.837642177558
95.7546214135619
95.8152537437903
95.9427336975373
96.0157200502318
95.9853958862699
95.9256764538645
95.9461148938395
96.0763228080117
96.0712024021382
95.8623602712957
95.7815543012623
95.9138232420554
95.9559241412565
95.8256825432328
95.7201102108696
95.6679149062879
95.5829962394606
95.4735471459204
95.4710397011251
95.5044125339703
95.4364639942933
95.4792007554831
95.5484402646614
95.5032847187654
95.5675723744407
95.5995829071339
95.4532088417162
95.4245794092064
95.5486917162434
95.5730286594481
95.6163041448559
95.6758966320427
95.6377579334039
95.6385660221425
95.7327812438635
95.7467711176344
95.6651240375849
95.7488104651782
95.8431844736386
95.8479163647693
95.8673056037634
95.8484312645684
95.9152506049995
96.0013669240231
95.9743201572175
95.9273162832219
95.944815200996
95.895882878381
95.8196012999039
95.8448470157937
95.8611703302981
95.8772512465568
95.8959843919405
95.8923361697211
95.9072967720386
95.9130295441902
95.9311573405049
95.9862490783642
95.9694757611788
95.8655868645723
95.8305046944118
95.8674843963279
95.8852452021078
95.8766463860835
95.8638551759728
95.9576579136927
95.9861251723914
95.8748496497888
95.8272641190171
95.8199588255824
95.7481519144026
95.7495232243788
95.8231682002847
95.8519562540803
95.8930512363415
95.8721108289055
95.8142286361985
95.8010627508873
95.8936598649193
95.9994847643152
95.9656941572873
95.8894875185859
95.9066461128001
95.9803528624802
95.8724875192476
95.7216161366148
95.8043549979706
95.8549470572707
95.7912542188672
95.8981068847085
96.0164031167187
95.9921416670792
95.9576898770334
95.8736379685131
95.8037618429004
95.8180455175623
95.881728474141
95.8746964647773
95.8434472336176
95.9185760266177
95.9535994124682
95.9085303940157
95.8713952656693
95.8766013824788
95.9078331094673
95.8772316447488
95.8033530010936
95.8102818918923
95.8394514540622
95.8519296239342
95.9229178271805
95.9065698082367
95.8144141125081
95.8541229770991
95.9141488397718
95.9296070126081
95.9326192992171
95.8761588842481
95.8637273736113
95.9087998743136
95.9021270533412
95.9156114735318
95.9283462870911
95.9166391080129
95.9684211943888
95.9804607193837
95.927079023301
95.8326507699926
95.8065987264926
95.883266701918
95.8884774638
95.8690322309966
95.9132494611621
95.9666743684716
95.9621960312393
95.9188854046693
95.8889561841107
95.8500044682758
95.8822651437491
95.9653130448576
95.9789895422302
95.9316243399986
95.891038276362
95.9290498046704
95.9420641865648
95.9179124626361
95.9461257767229
95.9362999311185
95.9476043859497
95.9855693757321
95.9780170036858
95.9912259025763
95.9310477848244
95.8597853950706
95.8991413900541
95.8975967854355
95.9122513966376
95.9634135435012
95.942384283966
95.9289152202029
95.9599772886302
95.9531715196552
95.9005721896144
95.8993973415894
95.9141479437862
95.8458150746319
95.8341827795052
95.9490604523756
96.0130029848391
95.9387101160403
95.859865856571
95.8661438018554
95.8539304098089
95.8911489347584
95.9768120440759
95.9671523871617
95.9231957070436
95.8858417001974
95.8472784337011
95.8633667726479
95.8587983058395
95.8381697784156
95.8378045295451
95.8058083967059
95.8246999847188
95.840922434363
95.7858798157081
95.7862646380073
95.8478698380347
95.8584423849294
95.8181000488869
95.8091673103511
95.8005855994654
95.7452230500354
95.7394333748357
95.7231299834721
95.6408432507172
95.6330612898479
95.6577701668535
95.5920846761593
95.5774554708687
95.6465579615289
95.6576285417084
95.6843027103431
95.7570011948148
95.779292511155
95.6822652149292
95.5487144432981
95.4910921814414
95.4898321410188
95.5370528218101
95.5472073164135
95.5385660873275
95.5270554796817
95.4861124918695
95.5262519575664
95.5590323890104
95.5233408000281
95.5215462735955
95.5424251029481
95.5156861861895
95.4876829576202
95.4768499418822
95.4420251104881
95.4184963894057
95.4157894967579
95.4506842672596
95.5405169266444
95.6232469884422
95.6629510767944
95.7233068930292
95.781963225183
95.7622482463353
95.7063943795908
95.71383754717
95.7773336941068
95.8144187590738
95.8159278555565
95.7833951101851
95.7165455147828
95.7169074221147
95.7265496589307
95.6808736030868
95.6027279210236
95.4964117417405
95.4465009156844
95.4647903227443
95.3981026379041
95.3259898375825
95.3366962407204
95.3131556374035
95.2135080438688
95.1780526549294
95.2283087479002
95.1837424829148
95.0553516035978
94.9967939264897
95.0396207497134
95.0553976268872
95.0093565307261
94.9610461987185
94.8762463054187
94.7639267880012
94.6850237729385
94.6051739142639
94.4884929635073
94.3819270018228
94.2148813358557
94.0169843079147
93.9036212291949
93.8480788567115
93.8269477494063
93.8472107500907
93.8289434124268
93.7952238643966
93.8288700392928
93.9016907019048
94.0192880697496
94.1672025212445
94.2776437618471
94.3659123287019
94.4633654005581
94.5344883762297
94.6179077641394
94.7452331980377
94.8345812493356
94.8955342567041
94.9519310433786
94.9503304773121
94.8891677194653
94.8938763012274
94.9501686208907
94.9463995481706
94.8996700820809
94.8637028429436
94.8404014025106
94.7667672577838
94.694522445822
94.6488364842607
94.6086463812823
94.5685523553617
94.468579920865
94.3827772967824
94.3937917676115
94.4470375536244
94.4922526448268
94.5961458038333
94.7171033817481
94.7394527502059
94.7300479558241
94.7874928482045
94.8886037294139
94.9517444225629
94.9200478064266
94.8845423879775
94.9422412473259
95.0245950449639
95.0737232368821
95.1053085655282
95.1239646764038
95.1295833339889
95.1411095493499
95.1604209760889
95.1868794252248
95.2230213221308
95.2195163724557
95.2143465266534
95.2352174079106
95.2683657553484
95.2595584033405
95.1951760912766
95.1372949114665
95.0649239196034
94.9944888157767
94.9541763465525
94.993609487899
95.0906855112743
95.1924589528533
95.286532107846
95.3552100229648
95.4015480654989
95.4536285849546
95.5316302815269
95.5885653188962
95.5981071975588
95.5959014873867
95.6289208078006
95.6901228496078
95.7303497118489
95.7509512022351
95.7454760898168
95.7136346619785
95.6869451755641
95.6756637231984
95.7043202790712
95.7178681474238
95.7074950062754
95.7198958124958
95.7146089128672
95.6915561727864
95.6994310497789
95.7272195886389
95.7719399131131
95.7597899859154
95.7206243826561
95.7290838870863
95.7680587201164
95.7886073347089
95.8066696585579
95.8312038597762
95.8210714129459
95.8138438118022
95.8590297923711
95.8713051981279
95.865775325494
95.8796891267331
95.8737098556625
95.8793407312246
95.9170966966654
95.9074274018042
95.8871061228413
95.8823424548784
95.8787650251913
95.8740124138074
95.881591169004
95.8848272588022
95.8879273121338
95.930857403803
95.9396348139436
95.9132594009826
95.9397998972908
95.9502757075724
95.9442528983458
95.9666742038013
95.9706962952905
95.9276268138684
95.8868061062008
95.8933247956821
95.9367326038554
95.9816939264946
95.9794984065989
95.9682710208886
95.9915896824628
96.0101389909137
96.0183556982152
95.9997144161042
95.9857045845702
96.0290159732334
96.0382044005469
95.9838056314606
96.0048306245148
96.0677593712705
96.0586644763633
96.0572551863513
96.0753475615642
96.0587791372621
96.0783773416573
96.0959339424207
96.0888269161423
96.0876807417011
96.057758682374
96.0300696597045
96.0661653374969
96.1194353020457
96.095406568907
96.0478132262713
96.0414366445079
96.0647707685177
96.112357428062
96.1010762547118
96.0420018785982
96.0245693507897
96.029849956753
96.017174776158
96.0067661478275
95.9978131308489
95.9729846673196
95.9463585595578
95.928041619947
95.9479118452982
95.9879661805057
95.9914368575698
95.9793232661271
95.983490764565
95.973135341216
95.9527160766163
95.9553493383346
95.9551090700397
95.9950152766212
96.0233640933814
95.9495323608456
95.9033168946819
95.9456521851053
95.9873578588267
96.0120225824746
96.0402317138362
96.0564523769932
96.0353574494939
96.004037961099
96.0182557923108
96.087763248754
96.1075421300303
96.1039794107303
96.0963926017808
96.0978523356404
96.1307922213405
96.138801168172
96.0701723041708
96.0570498010622
96.1383296859678
96.1716564052492
96.164378345504
96.1995710655619
96.2459010544927
96.2302844272378
96.2009860699695
96.1793766031524
96.1664753085476
96.1712327326102
96.177465902465
96.1893277299861
96.1741102885793
96.2093360893027
96.2167676467076
96.1314719378768
96.1538601755525
96.2845755818443
96.3514757914886
96.2884569633949
96.2250300766619
96.2399944942827
96.2553430649986
96.2513225145139
96.2208948365328
96.188919650786
96.2223086016736
96.2545163050451
96.2139373516999
96.224748224113
96.3229354577669
96.3884999503041
96.4004898528221
96.403236683651
96.3440452579696
96.3024554457061
96.2696661300586
96.2302177002095
96.2614574086232
96.3085403200901
96.3323608146197
96.3761105234984
96.3830872086803
96.3796738238773
96.4359657540812
96.4527988187192
96.3889335314855
96.3259121223046
96.2608384556947
96.2411718460234
96.3368012355163
96.4054818044812
96.417250053703
96.3665792343724
96.3435587243667
96.3995343103371
96.4275017033549
96.3747502444832
96.3787056540515
96.4386772857603
96.4220872552613
96.4061688286137
96.4379221926473
96.4664790368908
96.3944105692078
96.398649668393
96.4794096870271
96.5004284288012
96.4817148815172
96.4694788747675
96.490664640163
96.4941856986135
96.4268940878206
96.4126169356796
96.4544387466419
96.4595955380407
96.4423955450235
96.4648444054027
96.463950841842
96.4358791420691
96.4593592420364
96.4989952466174
96.4718862051677
96.4417824195214
96.4671739439076
96.5085725936859
96.5516499573328
96.5769000687116
96.5030999682868
96.4258482349435
96.3926028156374
96.4376038721587
96.5067747138912
96.482081069506
96.4568122630106
96.5394243406924
96.5691539958013
96.4543683594218
96.3930562533245
96.4257458174558
96.4644641414504
96.4778700035269
96.4469772114208
96.4314859027865
96.4621655336032
96.4205470744643
96.3509543458168
96.3918174932092
96.4230455094157
96.4321353095426
96.459465047474
96.4340677053498
96.3614833848685
96.3464413602013
96.3613995913123
96.3368375830399
96.3124904384693
96.3103234590886
96.3200442161688
96.3880353747459
96.4849940274371
96.4320151007815
96.3358684836847
96.3760135111564
96.410812383362
96.4545430729185
96.4930882671718
96.5504555178561
96.5769774366505
96.5249700495487
96.5128220147398
96.5152056182695
96.5341967833022
96.5062800674677
96.375712818584
96.2696931434982
96.2326345493115
96.306021372925
96.4762230328745
96.5249104366667
96.5175674241584
96.4937798368028
96.382854440221
96.3898678516926
96.4706500507536
96.4223520649052
96.2539808620721
96.1342378479451
96.1639859481351
96.2965397334185
96.3591814798112
96.3676730354649
96.4523344839893
96.5071216708233
96.4967312326423
96.4831805437811
96.4606253896274
96.469288148521
96.4736539695748
96.4415805919684
96.4042286978178
96.4111466381893
96.407130766593
96.4049391353298
96.3996493185218
96.3244572450537
96.2819480948708
96.3208391070162
96.3689460356551
96.4299440304076
96.4278688841879
96.4863340766364
96.6470464992779
96.6508765263399
96.5171521472067
96.462611946194
96.5457437916508
96.7203271632966
96.7979700435315
96.8330674068058
96.9041767464824
96.9319175420663
96.8328310427603
96.8024200068835
96.8986412064112
96.970755992213
96.9585339457602
96.9430612057417
96.9041765178716
96.8927703995829
96.90131244895
96.9912393495619
97.0207425345609
96.881560844776
96.8463739959726
96.9987660116906
97.1304127847662
97.2475571143681
97.2774518786032
97.1518302187642
97.0512685614886
97.1028680121881
97.3192279797879
97.3289531432744
97.1158196625724
97.0462209514558
97.1674311082505
97.2534796554041
97.1707112128559
97.2769520947812
97.4104568950647
97.3714243877817
97.4208392210518
97.5459214837327
97.5352338058045
97.636117024126
97.7496830094036
97.6236589640688
97.2147698723358
97.1957172177197
97.432656777195
97.6591722725829
97.7470784799095
97.8028055491874
97.7437039324983
97.8130129714439
97.770807956934
97.819548662066
97.8202418934633
97.6029547731399
97.478277782623
97.4212483262028
97.4960223711614
97.6495655292314
97.6654686448364
98.050748761918
98.534295205844
98.5078002627982
98.338796478665
98.4353396766378
98.1759793482879
97.7744386263128
97.7469786468442
97.7403406617723
97.6006354175704
97.5001866071983
97.3013486373348
97.5448599622498
97.8460176251746
97.7223012726303
97.4576749696302
97.3679317746224
97.2323863864098
97.0684745782579
97.1146251623679
97.2437680739936
97.1301700866286
97.0629921128458
97.1003798866981
97.0934192754052
97.0192596124916
96.8937647424324
96.8672407522054
96.940053408046
97.0394726791911
97.1445049494481
97.2599434178817
97.1038705668739
96.9388315052995
97.0953380361909
97.2474945440482
97.2432415735363
97.0709102392218
96.8772949746961
96.9902472539892
97.1721926047712
97.0614493546523
96.9915098128128
97.0582405977867
97.1063535068423
97.0478280300244
97.0243163364357
97.1013615295471
97.2276448259396
97.3674205431349
97.4777656326519
97.5972363956648
97.520326624919
97.2320164435247
97.304710408756
97.3535643091261
97.3408054116902
97.4342876599492
97.3738880011888
97.6059692403477
97.956780750676
97.9260556658348
97.9279923085768
98.0103486286835
98.0850876425259
98.0964234106116
98.3936643309578
98.2909050407804
97.9051066006636
97.6517807247365
97.607763666976
97.5825046515538
97.7378384172275
97.7843209096411
98.0252793004626
98.3876712783835
98.362200418795
98.2980323880709
98.339075917395
98.0175957218181
98.0074983111859
97.9675601645502
97.8409224430138
97.8901477893029
98.0613940136237
98.1159936766756
98.246803527729
98.0998444757324
97.6669326831146
97.3297353505087
97.5113960895038
97.7606165089411
97.8339872838199
97.713044859495
97.7849042665082
97.803682945768
97.5039461161563
97.6342226857127
98.1699493188992
98.2039633950643
97.9656400796418
97.8561946715857
97.9472395668494
98.0993797654764
98.0146783696741
97.619887160712
97.4416767837876
97.6227962827034
97.7930301543522
97.5863503694074
97.3396411479751
97.3801341307413
97.5055214468024
97.4315522588739
97.3718244270483
97.2131361773153
97.1595232922399
97.3696593406255
97.5176701745417
97.4702299323852
97.4938287584747
97.4809610262863
97.4068467982272
97.4013501761689
97.4740461462289
97.5106377754401
97.5551904406103
97.6196494430576
97.6746679465596
97.7105669160179
97.6699246745197
97.6430728231252
97.6553003795926
97.6688420155873
97.6615108988307
97.6215899961053
97.6634977853643
97.6828250515167
97.6473806256981
97.6772202860689
97.7445331398715
97.7334906633864
97.7415628987308
97.7784764937507
97.8351023232122
97.811352239454
97.7673942203084
97.7773232225204
97.8104809252926
97.7663416625567
97.75614342608
97.7495844562235
97.7810751722511
97.8597979414675
97.8138958221998
97.687372336052
97.7542529929661
97.8120835859763
97.8117561790071
97.7706868677221
97.758933358033
97.7654879721532
97.7595267494692
97.7307819175239
97.7048976784937
97.6862330936623
97.6863111032086
97.6423336105287
97.6461961598605
97.6317361302859
97.6346855906469
97.6148735127419
97.5992539932279
97.5443384062048
97.4912279074308
97.477743085887
97.4634665906903
97.4452559704298
97.4474246603474
97.3802185082059
97.3615654506404
97.4196698252538
97.4712183881846
97.4676455173736
97.4920836129861
97.4766870478624
97.480575149116
97.4832137706888
97.496008798309
97.4884344237611
97.4838672590831
97.4476169916081
97.4625880896774
97.5216648080517
97.5365572479464
97.5175272170684
97.5047065720995
97.5193745605037
97.6475027562837
97.646354413497
97.5928853456525
97.5552968741814
97.5852628437515
97.6214125272614
97.6400207099727
97.6122803593365
97.6189662742809
97.602975315138
97.674075796166
97.6575632270683
97.6025041609484
97.5645347706618
97.5706182363031
97.5479149135736
97.4652196512339
97.3950542099327
97.3457261802119
97.2192079611704
97.1125366642294
96.9285269066142
96.519151997537
95.8215762700772
95.0197250217786
93.9792812725946
92.804711666464
91.46069309693
89.6761000039962
88.5019248053288
87.6664607216957
85.7042624279613
83.9073780625567
82.2428505436579
80.742880139341
79.4324095408634
77.9455010788098
76.4857946441668
75.6571889613863
74.9083712165585
73.4934974724326
72.0036196514943
70.9704710237466
70.6001346142838
70.6573093970603
71.2323972611876
72.2972153209574
73.1070670625445
74.0805078578506
76.2483091393198
77.4576671566377
78.9085318276602
80.2994418678105
80.8119222782344
81.3946248095633
82.0990102775505
82.1821164311288
82.7970112923579
84.5497395613047
84.9695351514655
84.9953355464282
84.9421708831041
85.5525105502651
86.5133829908745
86.6302245683309
87.1217529301607
88.2387868601151
88.5374644361396
88.3756869415817
88.9747798874492
89.7500982733733
89.9425953441557
89.6519574793718
88.9040354044304
90.2882850314913
91.9359377446919
91.3918690614659
90.9395379481146
91.8159889938621
92.1801498239623
91.9970552898878
91.8153469172172
91.5285901829254
91.707889590851
92.8353603584438
93.0876371893201
92.7510488623858
92.5963614503695
92.782903561641
92.8698200525992
93.0814677962773
93.4010236358936
93.2050088794412
92.9175299806535
93.2106129720098
93.3237600378909
93.0930516936768
93.0332503019485
93.2377615327854
93.4767666025405
93.6329533445895
93.8624784329007
94.0615560064003
94.1930518344394
94.3134122265148
94.4335276060456
94.5050272503391
94.5791221911011
94.595833836098
94.5826541066985
94.5205065889922
94.3173244247116
93.9148919363125
93.3893721308261
92.8230181079425
92.84492904267
93.6283716326393
93.8637695937457
93.7910283939087
94.2171729986542
94.6773865794178
94.8018345130844
94.8434866753065
94.5314029865276
94.2600578844
95.4409197570841
95.7194900665237
95.5539575640143
95.4781943195723
95.4657317921381
95.5638157723341
95.5022610776668
95.4372997796582
95.4558956029669
95.4942805060036
95.9816499923354
96.1754531988078
95.9226644080052
95.7541966045378
95.8835103929614
95.8064935424852
95.6209612992398
95.5976569617213
95.6280514161288
95.5906678150533
95.8414925116979
95.9802642291481
96.0066999273832
96.0876408228494
96.0057058683717
95.7066240485045
95.1724679492334
94.284284809202
93.1848012218586
92.8790998740938
93.1304685171909
93.7332419021431
94.5318716139075
95.3828878567685
95.8887507811013
95.9607697756738
95.9444816100829
96.0576930733084
96.0972862738965
95.9431345814485
95.6878581539746
95.419828556148
95.1262223881598
94.7912848895488
94.4310797750997
94.0227036139389
93.6490989564101
93.5630249464774
93.5739856353078
93.6521417613741
93.8767121968188
93.9544678953841
93.7274622377298
93.462479767298
93.5312525870441
93.7092062552481
93.5331172632218
93.3586677259275
93.3397017763447
93.5300631401266
93.7362062791446
93.7743277230052
93.8013088311463
93.8580058089508
93.8566281661337
94.1258768279928
94.6243707744791
94.8516988946296
95.0753908172364
95.4307580775125
95.72921184955
95.9017337624245
96.0300964318599
96.0540601374021
95.9660701092579
95.4241281030459
94.2190400813714
92.3927202487521
90.1226251925521
87.8963308687466
86.5101162090922
86.2702786978505
87.2439428793229
88.7094540916556
89.8107604013144
90.8216779104198
91.8126705224447
92.4653556076892
93.0481363589102
93.4003532631189
93.479125886467
93.5220203901337
93.6548965519089
93.7022210799464
93.6931407291555
93.7230245287097
93.7506430262174
93.6772722692342
93.5533820219793
93.4486156050014
93.3073767838848
93.2181098014385
93.3799877886807
93.6892135265597
94.0453907120022
94.5174168882833
94.9163410410176
95.1056443795622
95.1701175394031
95.1386510726967
94.9995723946592
94.6580273265044
93.922790462211
92.6452877042172
90.7753920361357
88.5534400100619
86.5504919129503
85.3650449658304
85.4986319426504
86.7542896853543
88.631215662266
90.6240368109379
92.3146109561106
93.501042425585
94.2334410056587
94.6084476125359
94.7195645548252
94.6953501951039
94.5823058461686
94.4239917925033
94.2107224387183
93.9401990157774
93.652678249487
93.324523897963
92.9486913127776
92.5888885595661
92.2720241983803
91.912621398573
91.4374484097525
90.8469223440297
90.1349733064428
89.322165823318
88.5139335918647
87.7447523570561
87.0043264394834
86.2819418783668
85.552499667332
84.8176497122077
84.0915809800833
83.376859296445
82.669000263657
81.9414792461319
81.2182937538625
80.5119634150087
79.7594493091787
78.9445620038799
78.1037518045501
77.2448823212745
76.4433358616827
75.7544127532646
75.1694859862983
74.6885129714283
74.2892837050639
73.8784840443934
73.4155447561231
72.9150122139745
72.3898594045559
71.8561633945412
71.3302457236554
70.8355887674632
70.459452728581
70.2338150710059
70.1784831287257
70.2896720333596
70.5712582378069
71.0019230650898
71.5202338656663
72.0778065291617
72.6190989529107
73.1579675041714
73.7420433248277
74.3746777594212
75.0747678998659
75.8546909178923
76.6819466887817
77.4937366024789
78.2968687603868
79.0837101762619
79.833188180178
80.5532536820417
81.2838696016471
82.0076429763478
82.7234623002377
83.441034533522
84.157672719908
84.8609368059773
85.5392265609706
86.1661257248752
86.7337461538761
87.2339602523691
87.6475980737641
87.9384547904659
88.1119915232948
88.1576715705651
88.14264966159
88.1559215384815
88.2546112355853
88.5225973744715
89.0149925197782
89.6275418739061
90.2281444376483
90.7250113434899
91.0695136254078
91.2892859708796
91.4540934879488
91.5292853527699
91.5095482810322
91.3929148280893
91.180608170463
90.89409091468
90.5301793362522
90.0826690186551
89.5291608193955
88.8464293062036
88.0273974246187
87.0126920843975
85.7930202691116
84.431854814133
82.9925912593674
81.5862364055367
80.3336286526237
79.2646382808195
78.3489646572968
77.5526396861747
76.8727968494089
76.3266710342128
75.966427811083
75.8629771405889
75.952945652812
76.0155579535689
75.9825734310812
75.7849338614827
75.3464409558551
74.7050680027175
73.9977112473541
73.3032931238997
72.653469516826
72.1073648915898
71.6869339084599
71.3984555821727
71.235729960154
71.1628876589093
71.1763662240675
71.239904466331
71.3452760752516
71.5266607652721
71.8087618194485
72.2270596912064
72.7791537773981
73.4139017940452
74.1239615742009
74.8667633792549
75.6153964714877
76.3473844178579
77.0581724315614
77.7317318352776
78.3519134796995
78.9546097168814
79.5145822249335
79.9890471865188
80.3575472533523
80.6161628813972
80.7836115128116
80.8656223358076
80.8815314364284
80.8855168571034
80.9213295788589
81.0213007396562
81.1934814001815
81.4779048473749
81.879626735755
82.3571063134384
82.9318470328905
83.5779268347631
84.0034548717032
83.5690615958087
81.9845277941746
79.9501375040923
78.0540301636288
76.2126034616003
74.6744902449718
74.1184145868094
74.7831767213245
76.1344338171659
77.5005646771546
78.6482246917002
79.6090546255382
80.4039297050043
81.0758665082186
81.6281965771769
82.0846785444271
82.5020933501395
82.869759744111
83.1604308786133
83.3713260300793
83.5193584407218
83.6347514837417
83.7643776051948
83.9214935352474
83.9909608012086
83.9172842414234
83.6902477191975
83.3070529487951
82.8105249178081
82.3267701344775
82.002446994678
81.9187144639809
82.0698596467702
82.3742457847895
82.7222806456013
83.072449828673
83.4559272241674
83.8602547100604
84.2090479684796
84.5115886955193
84.8011350778147
85.0613515951224
85.303492520933
85.5210915114959
85.7028929469487
85.8761405190509
86.0637886960992
86.2414947294572
86.389124128976
86.5201142670827
86.6419838144071
86.7804764104878
86.9297843545303
87.0629914022998
87.1879522492708
87.3345308892219
87.474771563798
87.6084838156016
87.7472011544637
87.8537662745426
87.9420571429164
87.9991998133955
87.995766076599
87.9571697671592
87.8577875441058
87.6621109211663
87.4569566940341
87.2942865157684
87.1832339649937
87.1021552774219
87.0832828732932
87.1724449647344
87.3208425966755
87.4875695106457
87.6060850786239
87.6058135587555
87.4991245454581
87.2589407175954
86.7862833613656
86.1070144228064
85.2011994231888
83.9497892335982
82.0450866629172
80.0567413093294
79.637326456106
80.7520829468921
82.0323140841909
82.9913738700016
83.6470998697091
84.0491446019889
84.2900095076553
84.4133310714912
84.4777364827366
84.4328583125547
84.2803285030855
84.0351402938473
83.7026069260691
83.4620533085352
83.4257022614435
83.6733375568084
84.0445481003411
84.3739664562352
84.6835414273985
85.0374727063976
85.3836945486424
85.6847272229514
86.0359793475495
86.2983621032711
86.5302314865671
86.8426928398551
87.0568514107839
87.1244052267428
87.2345962442089
87.4011180041572
87.5011981717393
87.6199476495534
87.7798441299439
87.8781845018051
87.9047546830413
87.9663428095474
88.114418310333
88.3248907157396
88.4353029487785
88.3187548137651
87.7807484201835
86.9844277138672
86.5425174976331
86.6749517608659
87.1475369788583
87.6875718093669
88.1255057159867
88.4594022507143
88.856126556926
89.238183970992
89.5523728138887
89.9182099150678
90.2445484111135
90.4759861577941
90.8200408960304
91.1597971485497
91.3676415115339
91.6763638677742
92.0989446418087
92.4389289527108
92.6824547367955
92.9707894824569
93.2006029793337
93.3915063131346
93.7114867620454
94.0178356804255
94.2268818610163
94.2912921075918
94.0360639512081
93.2728752586986
91.8547659446438
89.7305786134484
87.0428126008502
84.1647762019147
81.3381709502436
78.4904175089645
75.5458198519484
72.517041250721
69.8526975145557
68.2030835036208
67.7510759210027
68.220899667912
68.9591771583623
69.8813233227142
70.9612153637549
71.9592016586403
72.8316220925356
73.6358753374375
74.2934864019105
74.9865014340706
75.6497772191627
76.3176049256406
77.1817175359639
78.1390060914165
78.8065182805086
79.3572160662899
79.9666899398917
80.5233776550026
80.90140832688
81.2755463752692
81.5560778839556
81.5754895764861
81.5899806486424
81.8598929494842
82.2388584061626
82.7320912256006
83.1532428000433
83.4279293025526
83.4693535634266
83.8867015284254
84.0397357264579
84.1463295819963
84.3140651169111
84.4982192855367
84.6714024511682
84.9174615284282
84.9749346207184
84.7431223825212
84.569709669575
