1798
3999.43349933624
650.420452594757
1
128
4
98.0292800036145
98.0578008736332
98.0288652198706
98.0674420430681
98.1272554171259
98.0694423808795
97.9930298829632
98.0151660958237
98.0781911246807
98.1027186113316
98.1002234406981
98.0821993885885
98.0680378371714
98.076924867625
98.064802697193
98.068955586923
98.0825898645778
98.0316370425522
97.9906050498051
97.948006753982
98.0123532406734
98.0516058477487
98.073160075029
98.0915345154832
98.0629167891371
98.0724162968298
98.0800492757885
98.0258607868059
98.0144900408864
97.9905352313599
97.9489109244972
98.0111789906804
98.0842280890881
98.0231718701112
98.0246726822343
98.0365876416859
98.0852950414162
98.104532680785
98.001798812195
97.9167061807129
98.006756895548
98.0775967061503
98.0259174958967
98.0233129569656
98.1099218344004
98.0622643266776
97.955161255649
97.9618554121565
97.9964531867371
97.9739088120594
97.9598395072235
97.9508088605155
97.9412583201835
98.0195806790709
98.1635484247376
98.1126657628592
97.9530940375913
97.9811997597751
98.0380294475439
97.898918669863
97.8506620079949
98.0126964233403
98.0616340363353
98.0494820432984
98.1048787928248
98.0761465712121
98.0297207995522
97.9855575952125
97.995393247017
98.0187241953826
97.9867352171702
97.8748657031193
97.985956872538
98.1067619935323
98.1733811655718
98.0944282605004
97.8777439495136
97.7337109534737
97.9244480736321
98.1462958047467
98.2449744207039
98.2165651663361
98.0561158274402
97.9751194725758
97.9159244266314
97.8082828399298
97.9020262590116
98.0597303807552
98.1549679856111
98.1795339728086
98.0816272463493
97.9995524498977
98.0196910209367
97.9742571515535
97.9026618432637
97.9305429424962
97.8947496270787
97.8410994150825
97.9929951129503
98.1073357109006
98.08956355583
98.0783277486163
98.0621091378041
98.031965985007
97.8982937094328
97.817506513313
98.0277048126571
98.1247962562833
98.1059875738021
98.1029323863462
98.0839724138473
98.1055251348757
98.07662522276
98.001930447293
97.9704264993904
97.9603618213893
97.9474915713676
97.9845235202017
98.0375373838374
98.0459362165476
98.063422218433
98.0489927945686
97.994460167866
97.9050875031878
97.880749282855
97.9989027956597
98.0750183687374
97.9451164812871
97.8545575626413
97.9163826415063
97.9126281983521
97.8607222864742
97.8805389422615
98.0580223878825
98.0137542461164
97.9238435526017
98.0996827655575
98.2017429083818
98.0560007436018
98.0125674694635
98.0109445145778
97.9704568673771
97.970213450568
98.0135334895066
98.0647372125205
98.0255901160354
98.0086905000769
97.9760227425877
97.9463915704181
98.0104569244776
98.0320586521102
97.9600298188824
97.9257455801538
97.9267016040836
97.9041831934124
97.9439160748667
98.0240082873908
98.0493082740663
98.0166203976661
97.9692783814994
97.9906239635769
98.015572831689
97.9885184614473
97.9341761671743
97.8899085838732
97.9594938303362
98.0911156761944
98.0287475372755
97.999027043479
98.0589337606558
98.0990053830972
97.9565553915118
97.7860004437579
97.777138072222
97.8437900604008
97.7700892176991
97.8703504031934
98.1388697255088
98.2170709926435
98.1475699669459
98.0669329061939
97.9846619497217
97.9291141159831
97.8584951475072
97.7927727161795
97.7601989032783
97.7620930324207
97.7842822498364
97.7584476105592
97.9197354567368
98.1064802411316
98.1148966327249
98.0669287867506
98.0189765086463
97.9875542319352
97.9507552996701
97.9168127004794
97.8042410167147
97.670492749668
97.7869246951682
97.916548690949
97.9856448944982
97.9136874307768
97.8071638725162
97.8857020130903
97.9320456554985
97.824895409633
97.844454332561
97.9490054871016
97.9411775077212
97.9755935744865
98.0130435057855
98.0158822238171
97.9807293925644
97.9049598079515
97.9080359276426
98.0408916219866
98.0362265088146
97.9274198288277
97.8883635820968
97.8893501931509
97.975952557668
98.0609435850433
98.12752274059
98.1761776122213
98.0791630104111
98.0147946569628
98.0175055604223
97.8941845725752
97.7363879206709
97.7910684339967
97.8725874125674
97.894284826497
97.9075807029641
97.9591702862056
98.0427214782856
98.1058966876081
98.0599422143984
98.0518809365787
98.0862054620706
97.9799776923773
97.8839217703868
97.884620680317
97.9072293380769
97.9171238847803
97.9490806330973
98.0233372923794
98.0310521723301
98.0642428397924
97.958816384965
97.7489302595889
97.7866211767588
97.8690036098582
97.8930702736265
98.0041645497605
98.039854475415
98.0686319171511
98.1046652020855
98.0579598928823
98.0329570743397
97.89953469106
97.740677605159
97.8343600804299
97.8942057834005
97.862007079523
97.9692789911849
98.0220226486782
97.9963473986579
98.0143509958722
98.0339699171696
98.0926966767078
98.0391677144841
97.9611823178935
98.0410998739319
98.091337464725
97.9676003519469
97.9027405989609
97.9436606806242
97.9641092577663
97.9590892043054
98.0014394040284
97.9257730572966
97.85160639538
97.8990915949415
97.9019745914133
97.9978336469091
98.1092506882959
97.9919620374584
97.9705805632397
98.027283818035
98.0163666517624
97.9821071610285
97.9328714745079
97.9009353169207
97.9503952690565
98.0320717068536
97.9514500361471
97.7565091064614
97.7124838659827
97.6914535726131
97.559167565741
97.6167899128392
97.7452536621946
97.7126740834846
97.7877319691703
97.8401478039765
97.738232237226
97.7327017691199
97.7109529994905
97.6186563183029
97.6739071263473
97.729753204272
97.7051211066131
97.7479677311831
97.8208781582284
97.8139189017943
97.7752412812247
97.7691356528718
97.805817453099
97.8244740965923
97.8502880595476
97.8993610160549
97.9752935762996
97.9645511325938
97.8570716981533
97.9167788598544
98.0085374508076
97.919487040454
97.8641496390961
97.904246369697
97.8859219177979
97.8131043044746
97.8393846282955
97.9423585681055
97.9447994413211
97.8651843509941
97.8504276368744
97.8805003527154
97.96757646914
98.0708044354372
98.0547524914758
97.9147843763548
97.8445893525631
97.862613639719
97.8702628090274
97.8365239309346
97.8167476252897
97.8255685548525
97.8810680169898
97.9174409126076
97.8910121722011
97.8366368893774
97.8081665218985
97.8026084634144
97.8280988884877
97.8282373153104
97.7866627183424
97.8269523079995
97.9061513369963
97.8605809577411
97.8085033136522
97.8551640362298
97.9593387702721
97.9710986719051
97.8939414868301
97.8933693745416
97.9197616187043
97.8530136657472
97.8031607892639
97.8184807371342
97.7754261094871
97.7647421817893
97.8338649608913
97.8607657276055
97.905652257308
97.9187538054225
97.8573913191102
97.8021247615339
97.8035721755149
97.8756913019035
97.8901680910848
97.8285348783842
97.8601704978688
97.9215875055985
97.9147875901638
97.879463971143
97.8629985922161
97.8799915591683
97.8751102180399
97.8268835783941
97.8236301743223
97.7963556302033
97.7799793099105
97.8509328997177
97.8572189083275
97.7896201569165
97.7893765796675
97.8603873001898
97.9407536253304
97.9170888719921
97.8464251684946
97.8259894034802
97.8111754369365
97.7735065948541
97.8056538882365
97.8764293413457
97.9121904023853
97.9185717452301
97.8900924407239
97.8368707041638
97.7674261719558
97.767401049051
97.8684633727163
97.8673558266238
97.7811448291487
97.7875436344491
97.8560364488284
97.9047529134432
97.9550636857069
97.970069613676
97.8712627438988
97.7736096457802
97.8082972963174
97.8841986936138
97.9344986032502
97.9408633964413
97.911767919402
97.8366986198808
97.805391654031
97.8585405924796
97.8668095938589
97.8623147247833
97.8909420056491
97.8681461270019
97.854167352943
97.8118084618558
97.8297043997392
97.9138091346301
97.8811435740479
97.8284137596542
97.8420257560688
97.8469960322628
97.8604010342932
97.8766134498798
97.8465117263863
97.8101461734947
97.8563748330072
97.8303060521898
97.750713382699
97.8138775435725
97.8904591245641
97.8843563439449
97.8619357312048
97.8105103610993
97.8030321630603
97.8210197278379
97.8372216425628
97.8306595223372
97.8082181094549
97.7728540830317
97.7456911026302
97.7288049552817
97.7322664682537
97.814573103166
97.8505024233937
97.7931871634382
97.763653800781
97.7787363626633
97.7824797261784
97.7710518565743
97.7890979689513
97.7837082703884
97.7607391109431
97.7220231461918
97.7057046487136
97.7671328587121
97.7881259138707
97.7341520669714
97.6988878018011
97.6898673465447
97.6968481089972
97.7221565627638
97.7031551900293
97.6798704990063
97.703537647284
97.7091141960708
97.7217131561821
97.7787226207826
97.7720760541367
97.668932998925
97.6106447896722
97.6015774026311
97.5849832403064
97.5621401899772
97.5638482927939
97.5979897054581
97.6241181907189
97.6069795188331
97.6348760481344
97.6591636204749
97.6314281895064
97.6658801059235
97.6959661862011
97.6340916986707
97.6153899943503
97.5992145551919
97.5652521590272
97.5732551474933
97.589978248265
97.6163063617558
97.6419126076799
97.6649685520661
97.7000190821632
97.7126609486776
97.7173591275078
97.7383333783238
97.6920100498155
97.6501584642403
97.7284978756467
97.7566549566674
97.6976980134467
97.6843006884084
97.7081359702527
97.7153101828529
97.6991097904023
97.6455812074335
97.5671467398076
97.5050078973757
97.4985112050527
97.5047785049928
97.472852229241
97.4955077623632
97.5416007362713
97.5047842789681
97.4490766783034
97.4578050622451
97.4657103739151
97.4077023635121
97.3815139674991
97.3819800720072
97.3727562130972
97.3755675761302
97.3534960985473
97.3439278871442
97.3409951229046
97.2551994509734
97.1746780880356
97.1540194800048
97.0877651785308
96.9914564357323
96.928859592046
96.89714004278
96.8587288492155
96.8185062553051
96.8123898880887
96.8380082955642
96.8443815081139
96.8252351249313
96.8450682077973
96.8987239082023
96.9884698220794
97.0447897902623
97.0522350467868
97.0988513414519
97.1475261537197
97.1748557528456
97.2417935495815
97.3276964941519
97.3651200975043
97.3833966829507
97.3845298787161
97.330748359068
97.2640178499021
97.2929409806518
97.3669635465507
97.413196166577
97.447001436549
97.410279298206
97.394978427798
97.382550917849
97.3202001087848
97.2650757020456
97.2706144902862
97.2883594284899
97.2047427254852
97.1527619874159
97.1855308374663
97.2006389445366
97.1987509440997
97.2257076730875
97.2767933591965
97.2898690888896
97.2374917417279
97.2020194760547
97.2437496542881
97.3146664690802
97.3343010337579
97.2858665104355
97.3131068637331
97.3710280982765
97.3530101251204
97.3328322621835
97.331791904098
97.3190411851354
97.3434896529289
97.3765170435764
97.3818466417836
97.4143999177798
97.4244735454575
97.4120520797654
97.4310300616214
97.4681840763039
97.487365200572
97.4673759135189
97.4206199139634
97.3910125454275
97.4089963366818
97.4023349596732
97.3940970234094
97.4584814495437
97.5034991062494
97.4858092801828
97.4889963434423
97.5195896723922
97.5439188046987
97.5424116591247
97.5307205831202
97.5469671276089
97.5292779624236
97.5271288951976
97.5813101069588
97.6182046778789
97.6293995253098
97.6203736514548
97.5896281276366
97.5592447938007
97.5441608412815
97.5687074904905
97.5921921474942
97.5669850834837
97.5626208940078
97.5778148031173
97.5625256871225
97.5622812451737
97.5877559007081
97.6372852687091
97.6304534034508
97.5629410412031
97.554943543622
97.6085814563367
97.5996725054907
97.5516613741564
97.5488986687195
97.5956232548228
97.6249946293133
97.6255992691052
97.64121641076
97.6420274089824
97.613072402934
97.6137951353254
97.6819142175522
97.7449515997236
97.7044108201063
97.6324908557004
97.6132803279116
97.6315641999529
97.6138396294354
97.6065510615929
97.6448597907667
97.6549169087983
97.6481299537979
97.6312340420035
97.6059352772217
97.61192125641
97.6161015181395
97.6135000873322
97.6371726822865
97.662892422363
97.6421569575584
97.6113156732001
97.6285498078935
97.655760600143
97.6859150537357
97.6713645045996
97.6297535859033
97.6405468203992
97.6548322980545
97.6737439495349
97.6889114256284
97.6819579326992
97.6975592354394
97.6914728875417
97.6344945446694
97.6323623686167
97.6814100707499
97.685801509793
97.6679020432897
97.6658120830149
97.6508475011218
97.6525599530461
97.6999610781106
97.7097741173822
97.706567121629
97.6748249563031
97.620065302752
97.6422680292687
97.6722017070298
97.6625021901357
97.6783661981817
97.703071929609
97.6895353676348
97.7000965752448
97.7225598925454
97.6935717183116
97.6485457397565
97.6416623555393
97.6431616146107
97.6107599671987
97.5957562109977
97.6017115151281
97.5930030390419
97.5682479564889
97.5746954004824
97.5923071472523
97.5701923369965
97.5861843030912
97.6462790456566
97.6361819706014
97.5857313721101
97.560747347715
97.5540629082745
97.5955659605286
97.5991485228096
97.5603240904019
97.5621143034388
97.5740224592321
97.5778668895138
97.5864871419253
97.6192786060901
97.6511868497144
97.6587299886945
97.6594398789489
97.6797142327915
97.6688708274404
97.6016693046956
97.6606349548165
97.6969684040109
97.6465112121383
97.6922376680191
97.7206015275647
97.6605140547714
97.6395914560428
97.623407607092
97.6118836928042
97.6918182100317
97.7303300080106
97.6933486553095
97.6823194557729
97.6990380716003
97.7002017040821
97.6909985090374
97.6711404664777
97.6732077934913
97.7269326524854
97.7301136160232
97.69310298285
97.6570999558199
97.6624576935961
97.7484969344854
97.8051754695111
97.7763245657194
97.7466763289646
97.7593576238705
97.7003843741608
97.6603307769696
97.7224053164395
97.7598018904008
97.6742382981057
97.6444512728205
97.6724741930462
97.6853874922988
97.733180776537
97.774529083623
97.7611706029791
97.7709884903321
97.8004526802983
97.7530224524429
97.6872543415144
97.6792490779082
97.7110203531837
97.7370157362627
97.7136866954062
97.7274973837515
97.7922738652758
97.7346104892625
97.6913268616797
97.7754185506298
97.8422071272454
97.8100536008748
97.7632295118706
97.7357117293363
97.7048366143044
97.7467170428176
97.7993474737168
97.8033409622269
97.7259024742
97.6951812296849
97.7496450022505
97.7776969898357
97.7337795924345
97.7257800831862
97.7983876624676
97.8244753994976
97.7274006074813
97.742283323023
97.7843823353688
97.7404680102189
97.7605152002521
97.8008181178997
97.8015317971117
97.8269016058039
97.855294399204
97.7740546096979
97.7020885146738
97.7214779711024
97.7224701063155
97.7252051679229
97.7893331562309
97.7925069058255
97.7417409215239
97.7246451974341
97.7602060413101
97.8391055655334
97.8387043891563
97.7800514460182
97.766355891856
97.8021761795948
97.8372481141168
97.8619372287092
97.8572892858469
97.7801626489789
97.7282131795271
97.727852228128
97.7554831672924
97.7613707424132
97.7920184378643
97.8222640594895
97.862728212084
97.8769455694336
97.8094861780803
97.7550189409321
97.7507326256438
97.8030717963581
97.8718556175702
97.8592826529951
97.8127238503079
97.8160206792223
97.8235223649016
97.8101202337049
97.7885875229173
97.7735061189022
97.8108345053023
97.8119170410397
97.7738037865144
97.7927363078026
97.8071495655987
97.7965963750943
97.7393320539766
97.7032268438273
97.7143541557581
97.745340469672
97.7945930238234
97.8761244387254
97.7843592408418
97.6719352389079
97.7317570411598
97.7820480556128
97.7945546419722
97.8745752480156
97.9323837691984
97.8594571880542
97.7905052292062
97.7642578247204
97.7348789166191
97.7344635391769
97.7375976242725
97.7492578317546
97.7934216087089
97.7497917680621
97.6910958505851
97.7300598328227
97.7887526676883
97.8017296763049
97.7693646474691
97.7404568646767
97.7224943157653
97.7202466895401
97.6790691147076
97.558643927963
97.504658620943
97.5841297124747
97.6353439718522
97.6102210506361
97.6499010544573
97.7247708460384
97.7400341788175
97.7240854339692
97.7086050200388
97.7585999116081
97.790030096269
97.7258400599763
97.7001938817848
97.7614757059895
97.7528681150739
97.6776272553224
97.6616228563052
97.6593696494137
97.5865956580425
97.5719665448153
97.6720742111968
97.7112176539835
97.6676377782281
97.6450808169879
97.6658565486182
97.7443102967968
97.7960436939734
97.7842135317212
97.7395454866366
97.6921287249978
97.8341599427939
97.9283016505423
97.9352437591475
97.9831742930976
97.9087781429863
97.9189355341568
98.0139106875064
97.9974154374826
97.9943912745317
97.956146749046
97.8398565516951
97.8124509524275
97.924237499806
97.9625491163455
97.8911107698051
97.8825748430519
98.0414323992924
98.0448356926692
97.9098164071652
97.9421111886267
98.1086956511573
98.1057183035151
97.984166629209
98.0404711729452
98.0769361450055
98.1629206573873
98.1251638018936
98.1032245180602
98.2358889095896
98.3425648035773
98.202261342769
98.1373602615567
98.3994369772288
98.4761327270332
98.150526986084
98.0705113088352
98.3046378354671
98.4119033395451
98.4168051941089
98.2664922472661
98.1828485662302
98.1481817081433
98.2484985948999
98.311653591507
98.3438163834432
98.4964666138394
98.5758688116781
98.2901702878321
98.2297577499889
98.2125678714721
98.191810144695
98.3932166320879
98.3711415382758
98.3211763309433
98.4208694496775
98.4434812247971
98.3871262053783
98.5045974878157
98.7509660372593
98.9508772253038
98.9169511805322
98.9999962498545
99.1412968102557
98.9569798954082
98.4791216418184
98.3521216096055
98.5395555172111
98.4798453676121
98.4746800915837
98.3418088485779
98.3274973302934
98.6276594274097
98.587892141418
98.4183634793212
98.3797037324088
98.2493791171122
98.0528964901101
97.9994243422481
98.1410663614541
98.167725218787
98.1249568381332
98.1144852584818
98.1097734454158
98.0661154253957
97.931968255287
98.003721120205
98.1141084968646
98.0852698893002
98.0670110960836
98.0735314193425
98.0620994164192
98.1229537566601
98.2175893128153
98.2608781751208
98.195441302814
98.0524403419714
97.9650040920447
98.0655818211357
98.1863995090703
98.0888347931893
98.0728825534035
98.1189473643768
98.0482936524493
98.0033374769088
98.0949967921262
98.194636776454
98.1923382291488
98.2492617821162
98.424574041508
98.4343527166203
98.3449347600848
98.3447983734968
98.3584747758563
98.3274445697766
98.3331931431103
98.1802375571686
98.1221486843604
98.3500812304292
98.6433322608375
98.6609860748014
98.5576258986114
98.65122487356
98.8435011505855
98.7163779277732
98.575606528977
98.599431878269
98.7152140178465
98.3663044023526
98.0160956348854
97.9674852912323
98.0204365245288
98.5381266536563
99.0610647426237
98.8338874845997
98.6715688760095
98.9097363774605
98.8398952646205
98.5068914078063
98.2923128790563
98.2460206545196
98.5606947257261
98.7021723671944
98.7899497578948
98.7931346969335
98.8699298314149
98.8775745278213
98.5459666603101
98.1780193062267
98.2328237638508
98.4751484204551
98.4417636702358
98.2945181343657
98.2611953173521
98.2366325093082
98.063725856566
98.3199526355982
98.8990743159728
98.9624121681005
98.7300584966742
98.4922849715398
98.3412583637379
98.6317639524938
98.7213598058827
98.257011331079
98.0661313675912
98.4064390020296
98.4921258142721
98.2369713733071
98.3320067109082
98.4971340290078
98.3585899039418
98.3133368546609
98.4018078910868
98.3380663183845
98.2043813420724
98.1623757388803
98.2787307837553
98.3362959653628
98.3147868760014
98.3393802011465
98.3017633392024
98.3536435781788
98.4825834606696
98.3871693172388
98.306938647989
98.3058944156806
98.3983296806777
98.4282526655797
98.3712648372916
98.3356674072433
98.3522191031546
98.4085344810658
98.4185634494789
98.4153447136012
98.3916050249436
98.4153592021989
98.442095938487
98.4329658960392
98.4988584360444
98.5358836362208
98.4908435090294
98.4717511454257
98.5475687636986
98.5620626162326
98.4826730371212
98.4590430304875
98.5043146012819
98.5088035447801
98.4831498692817
98.4718851688851
98.4934398080095
98.4729625425227
98.4811788834749
98.4509646666613
98.4461960928499
98.498933770765
98.470519437975
98.4229790467924
98.4493576608133
98.4745851007198
98.4462393613187
98.4970915235778
98.5597289381449
98.5261183698348
98.4803334722595
98.4307716066575
98.4244146732706
98.3456524380478
98.3462217577216
98.3570182156168
98.3465939706122
98.3408614903235
98.3229706534366
98.2995979914873
98.3019708206868
98.2554558807314
98.2684165485507
98.2437790970997
98.2791479342854
98.3120453795543
98.3411103560064
98.33210228283
98.3414587085318
98.3651601116306
98.3514375457937
98.3101913252483
98.2960511708719
98.3167736417699
98.3612565210454
98.332392923045
98.2746852299283
98.2867666148459
98.3304395626584
98.3402803733958
98.339946242676
98.2916988179472
98.3857736529488
98.4307958984723
98.4070932194492
98.3777069310474
98.4292455545168
98.4399664732496
98.4450052381417
98.4117458943785
98.4211614578184
98.3918795353864
98.3906146967871
98.4514100541292
98.422964300755
98.4058675585917
98.4081172393964
98.3730797555359
98.3250306650334
98.2672645562318
98.1903449206561
98.1242431533907
97.923548497776
97.6212636445003
97.2847682221837
96.8414432076675
96.3551159616533
95.6662886281654
94.8675142810042
93.9342470340805
93.0133761474477
92.1596667316304
90.8964072242993
89.9017051254301
89.1910110412982
88.5066084677146
87.8660197246676
87.0967887734616
86.2283026948772
85.508122081207
84.6566213154977
83.4595842075322
82.66657131515
82.5188626340105
82.6553171435854
82.8915868832524
83.1728972029863
83.534627589553
84.2184963582016
84.7003094961022
85.1040182871486
86.2823482854862
86.6644202702997
87.3953962952274
88.142045342352
88.3377378567003
88.669870620924
88.9958232850445
88.9016078655933
89.1221655289059
90.1313922150281
90.3802402655829
90.5880210785117
90.609142505779
91.0066907831858
91.5078595107553
91.513248701033
91.8444479131943
92.4837632975644
92.633168383837
92.6076396987617
92.9906098548796
93.3446411182035
93.4225597893668
93.3255937782417
92.912490809697
93.6862891402086
94.543866761896
94.2200393463998
94.0670049956396
94.5737785067829
94.795751048578
94.7837445390646
94.7268574825358
94.5645705142815
94.6392372775544
95.2526558934777
95.3718983650354
95.2302140895574
95.17074194496
95.2824546228868
95.2980092730266
95.3892769713653
95.5637505437582
95.4481459272513
95.2740432017931
95.433024594877
95.5014418940713
95.4696616376421
95.5275658564558
95.6374689723632
95.7754596936699
95.8680395416092
96.0254100439782
96.1329606673188
96.1830628107689
96.2351000351234
96.2860607045538
96.3110325165132
96.3333861125876
96.2964024511929
96.2594215866807
96.1713530701396
96.0088593778411
95.7743626182807
95.5769055605474
95.3385449831526
95.3521727388296
95.8088087414786
95.9843179101324
96.0061713472511
96.276977356972
96.4615432859819
96.4900359182535
96.5700570531208
96.4041688423582
96.1999288860317
96.7933804878036
96.9131351947687
96.9032298326078
96.9281432584336
96.8501891101103
96.918484617622
96.8843074922277
96.8728614895235
96.879994448133
96.8365761246891
97.0819963044533
97.2303874569816
97.1231821207951
97.0470987493614
97.1383741009396
97.0989852795776
97.0106257787549
96.974069141644
96.9460744677747
96.8343822201847
97.0425243767213
97.1475662200241
97.1327936217612
97.1822772910286
97.0456470666003
96.8023891905828
96.3756054045258
95.5056505095683
94.9454226143264
95.2683922456481
95.7525753251507
96.2362483030035
96.6376240960262
97.0115704120997
97.2614840202012
97.275421817618
97.2040938869509
97.1874112394689
97.1680169562736
97.0981548477489
96.9462554726129
96.7939946073733
96.6279851102071
96.3827547657133
96.141738014785
95.8388406456833
95.6147927166067
95.7352910657592
95.842224511009
95.9158629254924
95.9786312894994
96.0000979783439
95.8556883973962
95.6466790200623
95.5024861897539
95.6313147012925
95.624489393189
95.6609790104822
95.6769008954368
95.7406026414432
95.8395041826574
95.8763267996984
95.9226315250253
96.0273811008878
96.0567451489165
96.2178837120725
96.5373972064009
96.6913640997238
96.8686092995654
97.0549922451298
97.1580267896729
97.1637534438046
97.1283397300756
96.9583442968725
96.5534792015372
96.0243515861878
95.2495225427364
94.131399643075
92.8395804552035
91.7442917397835
91.2994860779524
91.5290000456472
92.3145335368224
93.2418533162761
93.9074652843159
94.4777313619755
94.9687074351457
95.2120795501524
95.4888335239998
95.6567904938988
95.6795040708763
95.6610393974472
95.7203897335583
95.7727948539848
95.7810673658259
95.802454392372
95.7823829914307
95.7272708443783
95.6259551288328
95.5591940630767
95.5469369656372
95.590815082451
95.7682323799507
96.005796321864
96.2303640495868
96.4942944977863
96.6781400456629
96.7399530985429
96.7000708475384
96.5771688900868
96.3507660015842
95.9720204578802
95.334822326588
94.3835009716334
93.1803921040136
91.9564279730614
90.9984853871164
90.620181041966
91.1036064697808
92.216248124675
93.5169839189759
94.7002029032391
95.5839441970251
96.1120210323126
96.3977093146585
96.500096741037
96.4595571123896
96.3601729980241
96.2442997002654
96.1427227057609
96.0104645323077
95.8347839931745
95.6465594891211
95.4471210932581
95.2174229927027
94.9888992750846
94.7634237630674
94.4797281733895
94.1118851813951
93.6720659306448
93.1697728392118
92.6440489031581
92.1260560395446
91.6290623493034
91.1485316912565
90.6778867812963
90.2124408286097
89.7360505686075
89.2624198399381
88.7931746091514
88.3249866023609
87.8494044445353
87.3606564084633
86.8677405404157
86.3455554347866
85.819770151806
85.3104214084779
84.7948616463528
84.3085533749946
83.9002282576475
83.575746214259
83.3257322421587
83.06606539746
82.7791077996822
82.463193490559
82.1175512553801
81.7726115904041
81.4426262639349
81.1381307863087
80.8907500547006
80.7276112854387
80.6607378659989
80.7045094535517
80.8516526288752
81.0928466813784
81.4016218748803
81.7222302374945
82.0645843007944
82.3994562462432
82.732929632607
83.0827388966571
83.4853236057773
83.9341998460715
84.398175693721
84.8778823355304
85.3667741496357
85.8453806439328
86.3227243091075
86.7751995103306
87.205717884718
87.6519116996393
88.1157699341108
88.5653353330101
89.0064832899206
89.4560239080952
89.8973307757289
90.3143518343057
90.6858147482392
91.0183683000386
91.3174748749886
91.5527213294928
91.7098291673979
91.8065442347947
91.8397630335578
91.8495549491813
91.9131246265138
92.061796636143
92.3158874714315
92.6818473082727
93.0973516333614
93.4749104095714
93.7574204774484
93.9421518337513
94.0543817743064
94.1336213229305
94.1653733145968
94.128439461217
94.0249188277595
93.8595082959729
93.6509704090877
93.3745529006391
93.0290317299673
92.6089868049552
92.1029822252371
91.4869739176967
90.7551155969164
89.8982593292216
88.9542537366298
88.0077735582688
87.120023139359
86.3559644442025
85.7322916092341
85.2302913055224
84.8035200149756
84.4350591606174
84.1693870615674
84.0365175328599
84.0211729045255
84.0737887675661
84.0617513739338
83.9601144455602
83.7471080901374
83.388416815803
82.917490947579
82.428561625247
81.9900502387517
81.618915464486
81.3274091182406
81.1176412612939
80.9779999957948
80.9136034811765
80.9028636618187
80.9382293347799
80.9945775037027
81.0924122446976
81.2490543369656
81.4605962365638
81.7397280715912
82.0851404878042
82.4886105377191
82.9370276058116
83.4122807203955
83.8691183442356
84.2936415578076
84.7109940892335
85.0960377008709
85.4414331875934
85.7881145929885
86.1059817521306
86.3650588815301
86.563485462174
86.7011344956771
86.7855955099052
86.8125280111369
86.8140433313467
86.853049836111
86.9068362768704
87.0079811388483
87.1756219984434
87.398885779314
87.6799495323788
87.9799861870655
88.2861139153546
88.5549534480696
88.5996578541189
88.0701321885038
86.8615780431006
85.5032115259674
84.3506613939468
83.3539626646574
82.6781177353718
82.6759750126755
83.3300331753772
84.2544047629407
85.1040729487818
85.7717606822336
86.299511606281
86.7041746627038
87.0327947902068
87.317560659102
87.5778105294167
87.8284558889766
88.059108300731
88.2273870947829
88.3171456620112
88.3798262313097
88.4702959249781
88.5764397137681
88.6662267371304
88.6826430793629
88.6006695978456
88.4202664093497
88.1501109396261
87.8324428852575
87.5538689096653
87.3936651006566
87.3922833936122
87.5285226201828
87.7584701446943
88.0002109400754
88.2200985825059
88.4596908492557
88.7146881171492
88.9347604474516
89.1088872414981
89.2898821936053
89.4566090251901
89.615467709356
89.7531711215746
89.8605147215302
89.9471182106599
90.0367516525539
90.168646454224
90.2958277617485
90.4026293152969
90.4833159608453
90.5625978027698
90.6296471902036
90.7150932121822
90.8305340875992
90.9538247296699
91.0520413805041
91.1190456582538
91.1973265219844
91.2617668696204
91.3073213121301
91.344849416864
91.3177299470005
91.2662964901507
91.217326935592
91.1204847865867
90.9927180855077
90.8999852609964
90.8543055180864
90.7814969502725
90.773061912426
90.8845906883647
91.0006531089755
91.0621357048432
91.0694745730595
91.0463301181559
90.9338451138442
90.7216966943437
90.3419851889607
89.8433853542788
89.1827357323809
88.2835892042737
87.0918329810093
85.9940076879573
85.9329397840663
86.774102374828
87.635118228481
88.2171735479993
88.5674659784634
88.7721729326829
88.8774432094591
88.953613985434
88.9522203716412
88.8268043052638
88.6620890558638
88.5137992766194
88.3269001965263
88.1780834675904
88.2161111006677
88.4397029261651
88.6834881316854
88.8873036607205
89.1492033675231
89.4014092852701
89.6078099918487
89.7603522298245
89.9558993736675
90.1603176793743
90.3255712078636
90.4424683413358
90.5708287806392
90.6843944362911
90.7293711862542
90.8258309547064
90.9491378618384
91.0114685135768
91.0821935967084
91.1129047082404
91.1158708545628
91.142884257356
91.2276681137152
91.3876990903893
91.4419734887536
91.2751414119944
90.9152471496903
90.4793617704654
90.3000508423088
90.4316994720258
90.7738532000175
91.1449196108279
91.3897296470907
91.6099327723194
91.8816468805166
92.1657746584864
92.3610416700612
92.52509873488
92.8145016566697
93.0624663278399
93.2293599919677
93.3924632477469
93.583179589297
93.8435115218828
94.1466049889853
94.3795118772976
94.4566609819855
94.6416117398318
94.93352304241
95.0934724648408
95.2734700529286
95.4929964625776
95.6243160031606
95.5770831747746
95.2956707254351
94.721605175313
93.6520293739769
92.0165307138894
90.0299579418901
87.9652764346381
85.9186421631655
83.9509178630213
82.0305365260004
80.0938507246817
78.3986432817353
77.3699041145917
77.2195865818678
77.7223604775174
78.3269704891186
79.0121018259507
79.82891310005
80.5256494651784
80.9977987331219
81.4064425161
81.8564076224807
82.2965823241289
82.5011204991278
82.8235533950839
83.4513882854911
84.1128556744176
84.4703507273305
84.948552385605
85.3628395696116
85.5460217191613
85.7664409579165
86.165804905119
86.2962649701576
86.3170490730302
86.2638433196432
86.2689942546581
86.5093320326503
86.9342168966935
87.2566696362858
87.282289932989
87.2334944271648
88.0552281443027
88.3831023808893
88.3136225345641
88.1426267154522
88.261213764056
88.5824714306483
88.6101153580244
88.335298161994
88.4607794589456
88.6180485820189
