1798
3999.43349933624
650.420452594757
1
128
4
96.5435636425252
96.5166258243051
96.4636737462276
96.5160901234834
96.5955134892885
96.5609115110327
96.4650963313772
96.4166636186676
96.4896800798449
96.5822174530083
96.6014131600874
96.5586748197143
96.5156401127409
96.4919562739959
96.4726252978988
96.4714865028696
96.5026757171135
96.526911063135
96.5242547416474
96.4588718677735
96.5134780061649
96.6057548371347
96.607251935967
96.5370873586105
96.473494105776
96.4089734077107
96.3887140178363
96.3919984145
96.4180693840953
96.4293609719867
96.4537258995636
96.5622208725646
96.5841427867856
96.478816607205
96.4417016545372
96.4163161370958
96.4716143035969
96.4698996998368
96.4060714277839
96.4729063428122
96.6318018215026
96.5897466567747
96.4199145753634
96.4268478044117
96.5657247272859
96.541846105338
96.5119447283432
96.5685736695172
96.4732221005066
96.2748454592088
96.2113058899685
96.2762195587472
96.4436932848672
96.6664979917404
96.7502787818593
96.6147360753743
96.4248341472789
96.4119437182571
96.5154416912238
96.3787916922136
96.2727518454657
96.3925437264197
96.4245575421211
96.5597626604851
96.7106757045245
96.6209363358506
96.5562443662748
96.406569854477
96.3309621608539
96.5569099950396
96.5585950161437
96.3617609772414
96.4925120564816
96.6668826827737
96.7142337218203
96.5367863865987
96.1575935356689
95.9032227388202
96.4546621160312
96.9706037465011
96.9613705093698
96.7712610735753
96.5676019564284
96.4604294503476
96.3449130860214
96.2372728346188
96.3885690888454
96.602875160735
96.7551231351954
96.8417567898544
96.7855806220382
96.6733003848748
96.650364847272
96.4929277938869
96.2127134952553
96.258020885165
96.3443030792075
96.3444904444963
96.5912095406676
96.7465207219811
96.7294325881256
96.5805467539856
96.4230145848836
96.5132511605585
96.4376236335857
96.30170260493
96.5186144428079
96.6621301366213
96.6524645512654
96.6893144311022
96.7013731606716
96.6380443961898
96.5169486237057
96.4304610033288
96.4526992111869
96.4590691657529
96.3971820478978
96.3846722279865
96.4944436894492
96.615966244763
96.6608894943285
96.5642255094003
96.411734865422
96.3427867316625
96.4144658094618
96.5920699531147
96.6061261966983
96.4180035629581
96.378810899538
96.54689077857
96.4975573674565
96.2168780515334
96.1383979791749
96.5436183591469
96.625300223146
96.3501803891503
96.4821827722928
96.7896820353869
96.6761277935818
96.5500231805554
96.4659210505793
96.4417733879734
96.6292530594155
96.7964187865329
96.7570494666806
96.6257617762941
96.5736224926952
96.5386308924673
96.5668709152581
96.6342655110358
96.6920839651322
96.5755109077635
96.3203625634299
96.1702802732254
96.279824289058
96.528530923554
96.6696607689212
96.6807707473303
96.5876374816027
96.543109113919
96.5678565688875
96.5613198021554
96.5562517929816
96.4504527596938
96.3020546146977
96.2604022426789
96.3923584991701
96.59397523235
96.7142048970612
96.6616263095679
96.5317591074569
96.3198587184033
96.0807336234149
96.0791994593715
96.3190618260917
96.2837503160045
96.4211801201535
96.7408258739022
96.779472758515
96.6495620923166
96.4764894647737
96.3647397629668
96.2799566964376
96.1755845327923
96.1489429684852
96.0451290967518
95.9569801979605
96.0722123620841
96.2340157604595
96.4556351160846
96.5990743153727
96.5877497459355
96.4519056954135
96.2851762141414
96.2088957875229
96.1524517043166
96.0759537192947
95.9233269299465
96.0134873968772
96.3435579672893
96.3756726446852
96.3266330410567
96.2176505685648
96.1490020079573
96.3321293585325
96.3211174690384
96.18036365158
96.2581689873753
96.2836065269974
96.3091465241446
96.4968365717092
96.5667932079002
96.5217153760434
96.3767588695967
96.265589984519
96.2246189270417
96.2851562060162
96.3794041729552
96.3209016542568
96.2517120329666
96.3049026622014
96.5022830536854
96.6097546863502
96.4811888112345
96.444059492304
96.5020534451165
96.4185305660865
96.2550694681423
96.1388603752531
96.1493007330113
96.2073314509871
96.2326382298582
96.3145520070772
96.3082396599782
96.3253787287629
96.4188160443356
96.4743709700027
96.4061560457782
96.3291753923099
96.330826364628
96.2882738210148
96.1446524720545
96.1039568203114
96.1434100599448
96.1730076620051
96.2296197805255
96.2777232499134
96.1957173475645
96.2543652329775
96.3575643713123
96.217438135546
96.1124731817896
96.1308437900705
96.1983936460021
96.3328599624087
96.413887645012
96.5020351859704
96.5852724707633
96.5300912290151
96.4040493610231
96.2580217997858
96.1635352977345
96.3102668171607
96.4318214241894
96.3897521704772
96.4676900494368
96.4642642861055
96.3794354480356
96.4729409146112
96.5118410012122
96.5429550626209
96.5474053841372
96.4519207374585
96.4406400097122
96.4972208460125
96.4986873699079
96.3939983209174
96.3063150289846
96.4595926192882
96.5680624930275
96.518536829254
96.4296077827104
96.2967659475831
96.2721011256604
96.3895167986181
96.5277251118301
96.6409573253646
96.5139317919244
96.3619788822623
96.3909767134053
96.4142098313927
96.4618274641639
96.4554214044555
96.3545570805592
96.367698783715
96.4180481211613
96.3468682832133
96.208870212631
96.1922281573964
96.1697734531084
96.0222878315651
95.9861651875887
96.0305607242759
95.9694881642195
95.9829558378971
96.1015445319296
96.1106639221485
96.0667488366102
95.9925622418521
95.8822983842676
95.9832855848799
96.1446429626699
96.0956607267386
96.0228355570198
96.0917309491319
96.1461446979512
96.1881965769981
96.1932222121957
96.1293631178227
96.1398392408759
96.2678560346371
96.3744402290704
96.3763226484694
96.336552195698
96.2956451505401
96.3172344259204
96.4354550310195
96.4867310448782
96.4607287416321
96.4411586415485
96.3745475087138
96.3090835906854
96.3631920480134
96.4115993066825
96.3882793550836
96.3590775387127
96.3332528711133
96.3463473994622
96.4322266310156
96.482616389762
96.4930419799448
96.4641763511826
96.4080809076576
96.4089950179602
96.382226742198
96.3193285890925
96.3658621145548
96.39680798475
96.4159912314115
96.3990520990319
96.2999507452616
96.2315626786896
96.2448918106777
96.3049663043997
96.3685462194264
96.3504775294623
96.303261055537
96.3267096824419
96.3484547092296
96.2636310680989
96.2115108620198
96.347254836625
96.4712842506069
96.4383039320126
96.3613027893111
96.3239006810556
96.3584525820482
96.3505368692778
96.3181300980445
96.3705475611672
96.3767266807228
96.3098423164907
96.3214125512474
96.3076169770119
96.2778823466512
96.3317556932795
96.339752730709
96.2790597094542
96.2278159093794
96.2586328275723
96.3339623580905
96.3582329396805
96.3919784963239
96.3953665474892
96.3419657570931
96.3180458214975
96.3356267330046
96.3227983022637
96.3070655474314
96.2959183901754
96.2947467606018
96.3033141553134
96.3207194162709
96.3486846531547
96.3373900789644
96.2898354461986
96.3092159266651
96.3305286068536
96.3766853365818
96.3952424197204
96.2927179118192
96.2396153991785
96.2903668838068
96.3153458058249
96.3468756266998
96.3498278475323
96.3145461153404
96.3192146216068
96.3001532058702
96.2866672765157
96.2726292085532
96.2274160260701
96.2479476021235
96.2823807543504
96.2858762329279
96.2588258183051
96.2530253940659
96.3368666226356
96.4335485608772
96.3882891084682
96.2688962462711
96.2724551426545
96.3522878128919
96.3638816590626
96.3622439939816
96.3542743718107
96.3397532615196
96.3413852286065
96.3071689901762
96.2914997620229
96.3251210508867
96.3804834599343
96.4192689662388
96.401036710682
96.3983679858833
96.3681520902586
96.3509959890424
96.3852881420866
96.3421443538944
96.3094408612929
96.3141775086858
96.2887895030232
96.3176650098779
96.385583088197
96.3439396516308
96.2659890969067
96.327110668865
96.3362901335595
96.2291370584128
96.2530871340408
96.3642257299778
96.3653250900762
96.3063413395572
96.3112835044447
96.3544632335496
96.3336347319023
96.3318470850971
96.3707223651113
96.3605015743914
96.2993027283202
96.25202568917
96.2375565453961
96.2438354945538
96.2351905226319
96.2162936803422
96.1984861494026
96.1880120312325
96.2020553912586
96.216418511033
96.2088674532318
96.2007636793991
96.1695975202971
96.1671486616203
96.2083916209665
96.2358526616665
96.2149153607243
96.1928504665378
96.1689579368325
96.0915238811235
96.0257534342133
96.013956966508
96.0394073618301
96.0149986185844
96.0025136976612
96.0655985702739
96.083329048029
96.1019282868965
96.1458907528422
96.1301565627499
96.0590346219456
95.9835065180458
95.9275374066816
95.9239221583904
95.9409292396753
95.9295572216046
95.9168022943431
95.8912862576892
95.8658936794351
95.9303689758815
95.991080958151
95.9573799362643
95.9167966863314
95.9171729058957
95.9133754281067
95.9080531355171
95.9070210855186
95.9144006510144
95.8892386403848
95.8402387702612
95.8924377961999
95.9694448385091
95.9834423358548
96.0167582211288
96.06920335666
96.1603953916381
96.2358341336001
96.1856966186794
96.1233161179961
96.1603548833672
96.1963653334918
96.1712613502212
96.1321249012702
96.1257599440077
96.0998049752913
96.0244060814833
95.9546006273986
95.8906147373172
95.8224834059635
95.7950149357022
95.79366602252
95.7671288001363
95.7618093203332
95.7488226220196
95.651789375828
95.5617123884917
95.5657799089863
95.5733972926325
95.4991674182303
95.4041011816464
95.3572022262924
95.3653927496416
95.3311687771419
95.2848108641973
95.2808335882754
95.1763472191299
95.0530693719585
95.0080691727293
94.9127763419667
94.7463632619271
94.5941622829692
94.4622261849123
94.3466211439503
94.2801542548447
94.2055578997012
94.1563050160789
94.2098802977039
94.272260090427
94.2876183054764
94.3187380154318
94.3781371323208
94.4683842018034
94.6014735344827
94.7094326658924
94.800637177582
94.8805230706616
94.9778098499347
95.1027109360541
95.2005176075023
95.3048702511922
95.3894854474382
95.4256640956874
95.4533118471944
95.4550667959891
95.4807025726026
95.5190623756316
95.5369052643709
95.5508371100539
95.5567121973055
95.5833071621285
95.5398941225516
95.4676023480777
95.4405928997567
95.4247451286757
95.3827754103855
95.2715775195007
95.1795168666867
95.1654196131752
95.1903493496482
95.21786262238
95.2709976584267
95.3542409281724
95.3930234239742
95.411908904138
95.4215785475836
95.4295617651312
95.4383640108393
95.4144394767313
95.4013590611703
95.4519445715622
95.4857639900735
95.5272865090568
95.5679466743678
95.5466171335414
95.5407909682431
95.5689896232492
95.5700124158539
95.5949778426373
95.6384519995314
95.6327521902435
95.6584979572151
95.6831605105935
95.6972325499499
95.7315532716197
95.7012114202812
95.6759095476594
95.7121696614034
95.7542606016665
95.7481761048015
95.7906736521031
95.8891464778872
95.934933767383
95.9398886552081
95.9668528070815
95.9711417003697
95.9479261372541
95.9727631913169
96.0023288146636
96.000951265081
95.9850312727994
95.9909119837752
96.0525777302521
96.0853246883308
96.0688947162483
96.0564989579219
96.059317701808
96.050659772004
95.9891054869225
95.9471239990793
95.9682953486079
95.9831720713801
96.0289210432574
96.0601398165119
96.0189915035897
95.9876621957258
96.0332649762483
96.1127377835689
96.1057916391559
96.0525816338167
96.0289095135883
96.0433413673227
96.0505411305476
96.0496308975604
96.0617303678475
96.0894831469999
96.132940824215
96.144700578019
96.1365627264724
96.1448460114883
96.1339240702551
96.1046087887386
96.131788277868
96.2030294843834
96.2181841537315
96.1686112524202
96.1208276537568
96.1333053515154
96.1313100510513
96.0972896066111
96.1245579114566
96.1801000111808
96.1949644895778
96.1708045507071
96.1309162086192
96.1319239586211
96.1611366590454
96.1714034108138
96.1691468051223
96.1714167595503
96.1502489989099
96.1056100066608
96.131425361378
96.1774371305442
96.1706161928928
96.2006843998175
96.2282466750923
96.214457463799
96.2031570869007
96.2065802964208
96.2417784778502
96.2454224047524
96.2302463260674
96.2344133678268
96.2047531075026
96.205236880843
96.2441155510816
96.2642296940092
96.2755166468288
96.2383020541886
96.2306606138955
96.2775165217846
96.2894795134348
96.268461619286
96.2371673599395
96.200848410878
96.1823390533366
96.2002952126356
96.2189901459883
96.2140102718404
96.2288370730235
96.2614182111137
96.2431823323607
96.223193528179
96.2443247712071
96.2301014864065
96.1870413459349
96.1785432243691
96.1955645838963
96.1938916263691
96.1671070857211
96.1291762520642
96.1144560698355
96.1186435517586
96.1383848976157
96.164926088363
96.1330003604248
96.1142694808608
96.1486196357312
96.1649070672511
96.1641872283421
96.1101703542207
96.0784644554043
96.1383689572157
96.1666422263808
96.1426245967793
96.0961916505454
96.0690548123783
96.1159044678873
96.1877316302378
96.2409080581682
96.2695423899197
96.2635069653029
96.228287368714
96.1985762337146
96.2101150395048
96.2169823190123
96.2869744420446
96.3011576881555
96.2721445845812
96.3191624335769
96.3489586999075
96.3141760033194
96.2599371081164
96.2429736716054
96.2869874891833
96.3237539505505
96.3194926809384
96.3161221529977
96.3104916931501
96.3256424147791
96.30356030749
96.2590095171018
96.2646873281805
96.2787065809998
96.3038005000703
96.3237876551653
96.3459937089405
96.3165617847771
96.2909305644677
96.3823833477395
96.4306269711568
96.3664999730553
96.3120670526402
96.338493539297
96.3721180675278
96.3538634116362
96.3818532309154
96.4547882959573
96.4204525342356
96.3184012614306
96.2652109926482
96.3052427744169
96.375377573545
96.3858104897544
96.3963536678989
96.4723550109726
96.52810223103
96.4579785914915
96.4031232315922
96.3611655026922
96.337381172593
96.3695548009542
96.3902326949113
96.4333391237697
96.4960910629827
96.5066613504388
96.4916610158205
96.4984853818241
96.5694498567498
96.5570298445531
96.4240656455614
96.3416412814357
96.3438098231662
96.4040895264171
96.4579376069898
96.5123210035346
96.5000284678884
96.4591918028519
96.4642502930465
96.4486716540615
96.4214248289965
96.4568287437993
96.4932826060752
96.5027897483663
96.48628460175
96.4830962923792
96.5170296770139
96.5057851266839
96.5580669947164
96.5750589136646
96.5180188480865
96.542044167094
96.5655878251975
96.5446087915533
96.5690514020038
96.6008946298103
96.5383239959779
96.4697442147151
96.5116705520847
96.5234031068601
96.5065622620006
96.4777827921217
96.5027346985966
96.5950315958684
96.6120320661919
96.5361966699651
96.4620418990109
96.5298880859904
96.6723889789777
96.7179438844644
96.6538341969286
96.5735737027252
96.515452615605
96.4750495701262
96.5352156562782
96.5762017057474
96.560156585807
96.5592935813608
96.6395951952127
96.6435816692325
96.5078516779338
96.4496879231079
96.444782573573
96.4893768727896
96.532609118684
96.5225635703922
96.5424167292682
96.5504493500091
96.5225807098444
96.5070520915418
96.4879232328964
96.4480829686647
96.4699847558626
96.5055683335005
96.4950430464095
96.4435127346884
96.3686397506134
96.3420987012774
96.3626319005552
96.3385671627941
96.277838693941
96.2682461272863
96.3351799305406
96.4459461178536
96.4265933116286
96.3409884695611
96.3748659927957
96.4054892320969
96.3840917905075
96.4408817347641
96.570687296918
96.6293673646681
96.5527041759616
96.4737162732405
96.5227289652062
96.5885266014264
96.5295729062654
96.4054571488343
96.323112326862
96.2860126246857
96.3356492963418
96.4088463623617
96.3932929971809
96.4056974204932
96.4575856246285
96.3892841470115
96.379294482539
96.4623384041033
96.4295605489939
96.2846475615876
96.1908869199625
96.1931864629802
96.241910431587
96.2623369934331
96.3312661373523
96.4437286554178
96.46242530088
96.4340283498065
96.4400888051618
96.4653947709507
96.4773487830075
96.4184310275162
96.3528687586836
96.4003579445833
96.4880903432514
96.4720436328173
96.4286104424042
96.3708459608626
96.2444186913141
96.2713063417759
96.3984850408674
96.469611734203
96.5115577578218
96.4392792402389
96.4090978387994
96.4773949150448
96.5380027634486
96.5065132784317
96.4323297358455
96.477381159459
96.603589385191
96.6027876457207
96.6406702672164
96.8663538433616
96.8849217213349
96.7509825413809
96.8458211927276
96.9207301225346
96.8852095538173
96.7813716529477
96.755945814344
96.802607503775
96.8209400569319
96.828374064793
96.7906071636289
96.6984697661173
96.7409307106715
96.8677652780411
96.9267925194673
96.9824316566406
97.1277724275433
97.1930752893303
96.9754086564026
96.8504790076347
96.9574444695154
97.2386219952986
97.3316518626558
97.1683361464897
97.0795959063206
97.085801983739
96.9925593031722
97.0933213969413
97.3495978258298
97.4061552178407
97.3453539999877
97.2639491951596
97.2848190631528
97.3046697201523
97.4024076998533
97.4608599314719
97.3117482951648
97.0965177047364
97.191390999644
97.29243973776
97.3204990579897
97.4035189138548
97.43581652309
97.4515364059429
97.3996879583102
97.4008258064953
97.6947132526848
97.6179619079907
97.2457218237924
97.2101796236206
97.3291085758839
97.483210465165
97.5357075520708
97.4126512167854
97.9047150000397
98.3655011690102
98.0874857838906
97.9146161762378
97.9903016081225
98.0229310189641
97.7934837953541
97.5206665674341
97.5929201792575
97.5780262571872
97.4815297801973
97.3328512754658
97.465562354941
97.635306328454
97.588616713242
97.4466973948341
97.2657853476629
97.0838664817397
97.0095074339576
97.1067416828401
97.2203719401211
97.1536792549467
97.0601530984566
96.9622520621581
96.8845419601356
96.9473566466974
96.986413836451
96.9923458046475
97.0069790885856
96.8818817873734
96.8116662532696
96.9222861714366
96.9918085260707
97.0089611340635
97.0902868627171
97.0692375940191
96.9460273149469
96.9039323979152
96.868109457926
96.9368187461561
97.0805840385669
96.9966605637925
97.0024066659728
97.0406984361487
97.0652081258604
97.1303287421544
96.9810709669495
96.8771767997283
97.0962792773555
97.2365385699228
97.2393643578504
97.3017246625333
97.2491054741953
97.1927868137969
97.2925332991473
97.2242462926625
97.159997793183
97.2305259651107
97.2533834787183
97.4820007520099
97.8245775065489
97.8073012702442
97.7072892354653
97.6132315205144
97.6364222724497
97.8325191868633
98.1310176938331
97.9159614468472
97.4327896829983
97.3464913155243
97.3576945266404
97.2257367365798
97.4650884768745
97.7251797509909
97.8450915196218
97.8298707938215
97.733719624059
97.6089559667251
97.6284685601053
97.6039353586661
97.5244409642104
97.4958134883656
97.7676650732466
97.8123197915675
97.8268124105521
97.8947444132115
97.8121988758156
97.5925968142802
97.3409302004711
96.9879716405907
97.1613607427614
97.565096214038
97.3961052617844
97.1107742248434
97.1691327208489
97.1645269768285
97.0951914883737
97.4396444058252
97.9553401233074
98.0553143873265
97.9105797784947
97.7329514338737
97.5911428620205
97.5154107024194
97.6477129266656
97.4667555109578
97.0528976657104
97.0402130389528
97.1944321102718
97.0550546825778
97.1286444138609
97.3299978294126
97.2755135510987
97.0830501649935
97.0469653641825
97.0564010566468
97.0388083712883
97.1510887862297
97.3191044251349
97.1422766292872
97.0573629439548
97.1667028077277
97.2357658124593
97.2797824411718
97.3508364326511
97.3425878842894
97.3023093422607
97.2693147556237
97.3322743328809
97.3823994980139
97.4885792681054
97.5071506407115
97.4332040249018
97.4742401027403
97.524178956288
97.469492399075
97.4443888001462
97.4414188743154
97.4295929987411
97.4861026476054
97.6044259748438
97.6025567710527
97.5612073074694
97.5979069991299
97.636671155624
97.6318745334245
97.641738670015
97.613165945052
97.6128558386681
97.5989402752079
97.6126989026826
97.651950884712
97.6747530617381
97.6875522328675
97.6401684012987
97.5322057170985
97.5588264051489
97.6152036894037
97.6444369401532
97.631101939869
97.6533147273935
97.6781633564516
97.6226781987295
97.588922794249
97.6034113350257
97.5887922041683
97.5892923779861
97.5705740809347
97.519872329253
97.4083484035435
97.4972586771453
97.5392404326031
97.4604164545572
97.3699279103984
97.4030675311482
97.4240823334408
97.352186894138
97.2692282454767
97.3128544660955
97.2373031454517
97.2324265199311
97.3310306127859
97.4033600306402
97.3866862567843
97.380742280234
97.3501835090165
97.3381768975258
97.3615469606131
97.3742518047307
97.3313765913699
97.3426102014261
97.3512057972761
97.3416014412442
97.3836049626375
97.452897558268
97.4595805792926
97.4083937335138
97.3373261759927
97.5076944302308
97.5717814170992
97.5252890605967
97.4772387697281
97.50652057925
97.5067268399276
97.5479959497637
97.5109174039104
97.4893610436746
97.435996816593
97.4600816717286
97.5056015513601
97.5120816737176
97.534330919629
97.47355584957
97.3440353260226
97.3124841779575
97.2480507382495
97.0675881658046
96.9193133163298
96.6983049712831
96.3330981723519
95.8826045648207
95.1513493245245
94.2686850021658
93.0828909461591
91.7089080152378
90.105735850635
88.3722886295216
86.9480750093194
85.223329480098
83.3914093670763
81.9275538439086
80.4320190384315
79.0031899554357
77.5854065661242
76.058739393017
74.6425227498127
73.2736133946973
71.6330064614351
70.3147303948364
69.6079577290784
69.3249891139805
69.3965004508537
69.7075563699884
70.3186912356924
71.5371804263236
72.3831241282875
73.0977216255264
75.4179406671227
76.4745404445628
77.9388116744299
79.4603720401254
79.8592713478098
80.404050523933
81.036361415707
80.9040767791254
81.3200893954128
83.3285478847135
83.8894813121377
84.111154021783
84.0343734020624
84.6410639867139
85.64418019523
85.6697319257842
86.1756637447998
87.4090500201555
87.7414778505706
87.5691112433808
88.1557751635435
88.9398781294342
89.1526536463611
88.8312719005914
87.8055108922023
89.2073620054916
91.1719058467164
90.634774071191
90.1336392767439
91.059599973056
91.5057587113542
91.3840871685273
91.2441136707548
90.8667754043996
90.8881132005664
92.125430324464
92.4616323479406
92.1807777972926
92.0271830238186
92.2181453839284
92.2162838241139
92.4039920007964
92.7988795746605
92.5631982187072
92.1782339441965
92.5430448075308
92.7471909034476
92.5868690251932
92.5765307631853
92.7770506280478
93.0283342138689
93.1868997179136
93.3943779389783
93.5923950198021
93.7570323717497
93.8649100415917
93.9771035914457
94.0414547787478
94.0869895453132
94.0948939861747
94.062389837902
93.9292897778391
93.686920838524
93.2719954633288
92.8037706197305
92.2238532450109
92.2183642292449
93.1687174407176
93.4941305670999
93.4079163315502
93.8551159388106
94.3067557956522
94.3828879940192
94.4409672334911
94.0202048929526
93.4252676807834
94.7249001351769
95.2546140642741
95.2004473060301
95.1429882732338
95.040218005557
95.1748859880209
95.0761862411328
94.9455743683489
94.9022597250295
94.8499832195758
95.4638982940368
95.8349866655942
95.5553160458654
95.2965562546881
95.4861711044266
95.4392009112736
95.2262105794993
95.1627131366818
95.1969979237449
95.0733138548126
95.3782863566805
95.5909652766606
95.6006564903616
95.6820267037018
95.5058523259521
95.1074486563326
94.3464777583067
93.0025077322327
92.1695610268748
92.3776828918435
92.877566424044
93.5689405834425
94.3074468739151
95.1151289428728
95.6565166324927
95.6769994254714
95.5500673220765
95.6403783733032
95.689640259006
95.5581440610345
95.2572711664061
94.9380708314205
94.6448881378955
94.2362616186754
93.7976674707041
93.3244389679323
93.0243741918467
93.1765329188102
93.2927751707203
93.3556745577037
93.4973036039741
93.596813633334
93.3331818463625
92.9015645135215
92.748741247532
93.1137646458702
93.0440491941105
92.9564410686649
92.9080396148318
93.0225282375728
93.2840170406442
93.3986113832396
93.4631128956142
93.5290841269748
93.4585155517857
93.6972583435617
94.3549044967703
94.6556430527361
94.8880371584755
95.2196386755615
95.4785874438751
95.5395875912923
95.5720806072355
95.4450728258367
94.9782042160518
94.2517933065741
93.0116385530525
91.0500133633691
88.6853704091419
86.5434237628478
85.4181304129065
85.4362941596267
86.6016009561997
88.2349636326208
89.3943647963292
90.4006241024931
91.4043310362722
91.99750611907
92.5902387015171
92.9433121106127
92.9746160573642
92.9228036500653
93.0440838943607
93.1618867165586
93.1602399196926
93.1687946801221
93.1685422940019
93.1025419539161
92.9300887967091
92.8336375461751
92.7806271065738
92.7674732015214
93.0090180992941
93.3668362342569
93.7136000579448
94.1977399610739
94.5983205838587
94.7488043061542
94.7277973975566
94.5889026631044
94.321285163079
93.7768403803561
92.8070640807936
91.3105421083527
89.2715283205698
87.0302878058956
85.1235891152835
84.1428658579549
84.6310209826438
86.2541464630452
88.3556312872387
90.4538187946737
92.1689010716507
93.3001154677687
93.93407300195
94.2145413234045
94.2644726526805
94.1869825480564
94.0198170021346
93.8346456445669
93.6074541119311
93.3138805113383
92.9971487548301
92.6372991827846
92.2322226888581
91.8412013478379
91.4640807206691
91.0419105664311
90.4851072642808
89.7815157417095
88.9696800082106
88.0923536600986
87.2107537292536
86.3663514082142
85.5439601731757
84.7417212377844
83.9658262372725
83.1850212749927
82.3928042244774
81.5921747419016
80.7978629422769
80.0069756288881
79.2217377670418
78.4164522026181
77.5625451078659
76.6805764525443
75.7767758153995
74.8448697897599
73.9806198254272
73.2522485503372
72.6677669763796
72.1887175964318
71.7573652511938
71.3090346077659
70.8073322849808
70.2712684023974
69.6954822816578
69.1174919627182
68.5755443181593
68.1105207961837
67.7799469200323
67.6070882653172
67.6172638143887
67.8207308187942
68.1937152981792
68.6838898134276
69.2547973630297
69.8604384511515
70.4535108473414
71.0495707975675
71.6618829642533
72.3330285992892
73.1111434286458
73.9421759782546
74.7796936487512
75.6340568112756
76.4973409341115
77.3224165428315
78.0858008381218
78.8303985175185
79.6062939400394
80.3844419742015
81.1628528496645
81.9360042188278
82.688484521591
83.4245564433922
84.1473061206975
84.8034448429487
85.3922129349899
85.9095706948944
86.3295194542822
86.6125531488769
86.7803873653887
86.8454276131127
86.845952127425
86.887642895933
87.0526862624574
87.4277638438446
88.0357383190029
88.7179189039626
89.3386459736851
89.8325781832941
90.1652889444747
90.3694040339869
90.5110487712223
90.5733920931392
90.5431890803892
90.4040038277442
90.1534120529346
89.8047056311705
89.3732362037551
88.8540811062542
88.2041556678603
87.4040474306393
86.4329114229867
85.2656426508839
83.8965212318817
82.375521678359
80.8241771179027
79.3473587051536
78.0330405077835
76.9268982594258
75.9928690209195
75.1839534827885
74.497937413376
73.9675582394787
73.659093609222
73.5924052006989
73.6671703300856
73.6954645022614
73.5973306212257
73.3086372725889
72.7436388169898
71.9897191556899
71.2064367546327
70.4531238537926
69.7945096469471
69.2766831753582
68.8814965761212
68.6186606604471
68.4888662206373
68.4669090401157
68.5231571746421
68.6190868472824
68.7727603907745
69.0185469121634
69.3759972702438
69.8511904382721
70.4623739535004
71.1779537350978
71.9490585095949
72.7446136015314
73.514847718826
74.2537482984983
74.9879046506358
75.6764887048391
76.3081473142914
76.9071909013322
77.4435916237492
77.898781618393
78.2452204176005
78.51622438669
78.6864818809605
78.7525382040606
78.7733498536945
78.8138600950139
78.9077525316234
79.0497454838595
79.2773973409899
79.621037925212
80.0635579804787
80.5821939449762
81.1491339283546
81.7202511394213
81.9910375126761
81.3019463583699
79.4199217868307
77.1625008404033
75.1832940184424
73.3779325781215
71.9903797501959
71.7015151629979
72.6397436128362
74.156790402156
75.6085931921786
76.7891325998404
77.7381786829778
78.4842455747663
79.0822799897
79.6067337590099
80.0720184560691
80.4972498750017
80.8695513244293
81.1606757211402
81.3535046412461
81.4884855172285
81.6335592819301
81.7976917666262
81.9586266881562
82.0193138477677
81.906245141758
81.6158700839029
81.1709937716845
80.6226235983651
80.1183999550792
79.7898559272018
79.7389533266389
79.952388924255
80.3114892244873
80.7009562220923
81.1131922382716
81.5260033022014
81.920414308766
82.2776967569629
82.5986932705179
82.914271208665
83.2048582761199
83.4540472387158
83.6607387741297
83.8381981998897
84.017043266093
84.2283860518178
84.4408024333916
84.5878647789288
84.7253581514669
84.8715339597098
85.0379220191196
85.1956241115227
85.348664215922
85.505060143921
85.6792947677711
85.8319768364113
85.9630009965981
86.0879873522463
86.2060590637456
86.3269374548116
86.3925429985953
86.351124029415
86.2631793807445
86.1623317432952
86.0141797810894
85.8453697903431
85.688465031674
85.5623183089046
85.4659896690257
85.4626574295104
85.5803878348863
85.7479838373852
85.8851116305521
85.969017135789
85.9585437466283
85.7936456364448
85.4941453510974
84.9740042873456
84.1776597400115
83.1305410762521
81.7298813758735
79.6869511033265
77.6812924139404
77.4513174658441
78.7920322043686
80.2210072688732
81.2535736382702
81.8884598511988
82.2460933066685
82.4640802606582
82.5638698506962
82.5434456798948
82.4368428462977
82.2494577680401
81.9156284630732
81.5586499463202
81.3495168968751
81.4034040614662
81.6819693850079
82.0428202287833
82.44700066975
82.8455137323931
83.2178811182321
83.5655243107749
83.8456581712766
84.196575888016
84.5233919382599
84.7733907140984
85.0342811408301
85.3335476846265
85.5397616452573
85.6000567672942
85.6826014335653
85.7970102969518
85.9081047902534
86.0790442218103
86.2184756704205
86.2571851235247
86.2918632620347
86.4121533941833
86.6219023308818
86.7289611721454
86.5214163595446
85.8901418287523
85.070938707113
84.7024038019397
85.0088192447196
85.6252268588982
86.2046717572243
86.6913938298729
87.0712563235607
87.3929308662175
87.77731587089
88.1373026919153
88.449902810604
88.7712104043718
89.0788776966698
89.4482499696541
89.8057882741441
90.0983088271428
90.5017456719075
90.9405338286456
91.2404241641549
91.5421698597863
91.8259541447255
92.0636746599568
92.3561259805033
92.8281476969825
93.2153496848765
93.3714973356518
93.3216587838358
93.0074657960932
92.1911090943823
90.4999371115814
87.8982439146516
84.7773771175683
81.5462657522901
78.4726019833407
75.3347768012675
72.1044987040073
68.8780089000554
66.1127793650877
64.5264920393882
64.1423974292907
64.6905487444382
65.6605078568839
66.8799378956176
68.055624351291
69.0039514940067
69.8566115555275
70.6970623230223
71.4201202259095
72.1958884872248
72.9183827836427
73.6398458221814
74.3926251052304
75.3314695609458
76.1056142186049
76.5547222461964
77.2308418618371
77.9581309993331
78.3496751357769
78.7365099652057
79.0168588144383
79.192449232457
79.205814994944
79.0069701335266
79.2922170281849
80.0086185722109
80.5169643915546
80.5790602437293
80.7567615504852
81.7506692250596
81.8443870865592
81.6502863308581
81.7488502709806
81.9509490541663
81.9698060237484
81.9209790809889
82.1826880989173
82.6742872602622
82.7831246791144
