1798
3999.43349933624
650.420452594757
1
128
4
97.7150265581124
97.7240673237864
97.687164186617
97.6793817811963
97.7464082421682
97.7507115494974
97.7102219263481
97.7570022568645
97.7963735727587
97.7275473270915
97.6695065668447
97.6811570094377
97.7310574165779
97.7673494895971
97.7885335380961
97.7975906942227
97.7883168524447
97.7407330978273
97.666849519135
97.5857114252435
97.6897208078759
97.7753122168046
97.7305345217071
97.6972740295164
97.7348453149805
97.7385428577027
97.6614209751053
97.6136140452515
97.6265922699993
97.6103488861612
97.6407367334478
97.7070596680552
97.7686302863835
97.7374223314168
97.6948974788626
97.7098174504807
97.8208395686098
97.7412048483584
97.5457456185694
97.5676973059034
97.7284162760155
97.7268456492424
97.6756440250741
97.7636692843081
97.8665450881827
97.8252747775582
97.7758849931351
97.7033053004498
97.5299061955211
97.4439946174944
97.4941924429202
97.5422022517113
97.7186988333847
97.9415029321106
98.0026342248807
97.804278108337
97.5749392697918
97.6784254100931
97.7459649573575
97.5369119133969
97.5369193108622
97.6376832482026
97.6636156039132
97.8600236294172
97.9140030057157
97.7308398508216
97.6951820989856
97.608881837168
97.5893170529951
97.7196777066094
97.6979980748437
97.6520735355688
97.8131504334861
97.9099295583146
97.8893114094616
97.6287760120199
97.2442018900689
97.2371534689626
97.8082447639836
98.1028724632308
98.067228810366
97.8732384798816
97.7106403313537
97.6849451710129
97.5533643529984
97.4382905882573
97.6479703718825
97.8423732572249
97.8928541559181
97.991774253275
97.989073681414
97.8322194913682
97.8018655528419
97.643514077442
97.5058842280719
97.6701387886688
97.5982962354497
97.6275406810827
97.899946400222
97.9442740812196
97.8987377543425
97.7814037611433
97.7139560150731
97.7493267104986
97.6260023790939
97.588631538376
97.7627264396312
97.8655810144708
97.9454350312737
97.9630340666596
97.9122184720434
97.8748199971134
97.8092890608821
97.7385556725472
97.7073006059068
97.6658750165074
97.6269681611974
97.7114524414565
97.8579269409192
97.9540608406923
97.9032041206219
97.7276079636586
97.6697587706683
97.6290663430062
97.6133622136218
97.7522139373648
97.8143254447664
97.7062818293689
97.6734368587291
97.7847319080682
97.714244402541
97.4906568538349
97.4573760731429
97.7344572377065
97.6356694389607
97.4701384496542
97.8198131810229
98.0872970332448
97.9199298868546
97.7168816398885
97.6901056879745
97.7869119405603
97.8911888230229
98.0204319794255
97.9784636871367
97.8107155135875
97.7052001122645
97.677830639974
97.7776848716473
97.849450440319
97.868409233372
97.7510455637974
97.5841596892282
97.6558988284377
97.8223468204938
97.8921302576529
97.8941950838905
97.8072252491278
97.7533931970968
97.8145588799046
97.8322602111149
97.7784323445172
97.7505263099656
97.67177431155
97.5368580155002
97.5702009618208
97.8273525977755
97.924041132262
97.9561896802171
97.922143574632
97.7800355595865
97.5334917708345
97.4516325921748
97.6575671312154
97.68124830657
97.6065561998125
97.8791878449511
98.0826741554386
98.0961151030468
98.0031700801227
97.8002812148249
97.606088902649
97.5009000257675
97.529427028736
97.531966103679
97.3639967540558
97.2100459230542
97.3320190349771
97.6641855532788
97.8397965846151
97.8666406300948
97.853384430219
97.8283851900368
97.785740933089
97.6691527614789
97.5263291865538
97.3689900749513
97.2672036080554
97.5443120826077
97.784458988548
97.7139014180063
97.6358723353393
97.5623817114672
97.5731009046465
97.6292532469478
97.5003682988139
97.4695679494153
97.6605208618808
97.7497837682193
97.7451436908616
97.7500312106523
97.7533889216624
97.7528273438835
97.6817290137449
97.6984971448416
97.7849421137611
97.7987880123024
97.7457268786863
97.6513611474897
97.6531370643557
97.758208878762
97.8652173975931
97.993868262785
97.9939954096227
97.9024534064051
97.8183243278034
97.7889766273754
97.7628714489942
97.6445592022938
97.4579946233526
97.4104120763676
97.6975466891
97.9200366305112
97.7098525285765
97.6539406386787
97.869678078637
97.9560763397657
97.7799452059944
97.6248806703959
97.6503964825968
97.6683793987435
97.5888395310398
97.5979843910077
97.6513402401833
97.6800538799066
97.7696677705339
97.8170990387026
97.7966430491368
97.8864238517933
97.8947801358534
97.6918281595183
97.5444196303381
97.5968556020537
97.6976622859897
97.7921736244842
97.9030209888823
98.0100134664946
97.9618175387548
97.8037882048364
97.7256703635458
97.663453086386
97.6810083047538
97.8312032986849
97.7735488219144
97.6008899674586
97.7070723759805
97.8506107190739
97.9048977184161
98.0087407568911
97.9614354281898
97.8831215013785
97.9499725616373
97.993680818183
97.9261254807881
97.8729425676082
97.774126320392
97.7869024265722
97.8760608647241
97.8871821713928
97.9040701025757
97.9069257792734
97.8017772364276
97.7145317044027
97.7232284765394
97.7759978446125
97.9367433525444
98.0728746035791
97.9386584934828
97.7285105928843
97.7014538983449
97.8633254413288
97.9469972012096
97.8664188837903
97.8089177714767
97.8117500461809
97.8270434831144
97.8171009094328
97.6799720647386
97.5968553720392
97.5851104499571
97.4301440569922
97.394474465676
97.481560748041
97.2999623794791
97.2001321013574
97.3531636261895
97.399165114551
97.3964087869223
97.3683426899926
97.2839949712993
97.4407663982004
97.6182173456632
97.5542960797415
97.5761099865518
97.6769723980582
97.5819221757089
97.5501389823232
97.7011049812092
97.7235205278815
97.6221451742695
97.6580999488848
97.8283674505423
97.9585417393342
97.8710684263167
97.7322107087223
97.7656751423319
97.8442915001761
97.8566247581197
97.8466180111929
97.8520659813716
97.8343314173812
97.7868590153406
97.7974044871785
97.8650125939488
97.9062483500454
97.8271528054801
97.765301877505
97.7649958344307
97.8122817545051
97.8712012573594
97.8873372737696
97.878979538718
97.83722749062
97.7956243807107
97.8195856886365
97.8344537374623
97.7708527830136
97.7278347405252
97.8227523832085
97.8781512114791
97.8313455367144
97.7821585188383
97.7471780608571
97.7137077170987
97.7493585101325
97.7545724606583
97.6529755909048
97.6571857841714
97.7708265380371
97.7633456031161
97.7144930446067
97.7634271955404
97.8287652126785
97.8194881079818
97.7810329680719
97.8009158490256
97.8349123973005
97.78883834761
97.7533536915094
97.780183830515
97.7674483782203
97.7526527514482
97.7880609567943
97.7771176554896
97.7920003046393
97.844135944111
97.8021116123806
97.7553678677833
97.7409795593669
97.761872919939
97.8012370505655
97.7831493154471
97.7903272739805
97.8096645324755
97.8116511605605
97.8368471316628
97.8182831471115
97.7553387387338
97.7959355521302
97.7975174203918
97.7498177223883
97.7854077294964
97.8678568036518
97.8655971275729
97.7819433462704
97.7120429856484
97.744597128729
97.8381656477385
97.9334265855369
97.9301426053874
97.7858841087027
97.7471048307959
97.861037391161
97.8491556343411
97.7616198354136
97.775170137711
97.8238271004282
97.8548405878469
97.8490025560764
97.8128296896812
97.8013232597886
97.8156629265317
97.838011235594
97.7595055204633
97.687646436515
97.7988453124124
97.8865705757974
97.8798214427492
97.8822789960003
97.8770485661505
97.8471127187181
97.7702434408821
97.7831905893053
97.8569722035654
97.8601980024097
97.841411952569
97.8555578080929
97.8185994925235
97.7770314038656
97.8274865181758
97.8746059178723
97.8780045338442
97.8580193652486
97.8185261527421
97.8309099810136
97.8224999427137
97.8478933198857
97.852594441155
97.7225146663767
97.6720025881089
97.7456808803604
97.7675326023461
97.7923900993718
97.8379017466594
97.8431134077039
97.8495538159182
97.8882088091257
97.8471338651478
97.7161955977899
97.7649140160026
97.8785837672086
97.8336539405954
97.7728972180644
97.7488839014772
97.7611956186274
97.8154463972
97.8506100208314
97.8129050008816
97.790882978184
97.8091420896282
97.7654033118309
97.695549737172
97.6905628262781
97.6882718053997
97.7086550135729
97.7287461208688
97.6845520320774
97.6641235505206
97.6818697470329
97.6439244678426
97.6234243169946
97.6526446140598
97.6694783637106
97.6983764937791
97.7084580583189
97.6441665694015
97.647908079258
97.6566010781626
97.576032379429
97.5009026300795
97.5140503691253
97.5445846922168
97.5029124898418
97.4881837645147
97.5300288649969
97.562410803861
97.5878148496205
97.6356739952214
97.6693350598867
97.5756188235279
97.4491494691458
97.4271812310143
97.4503405658165
97.4500212838544
97.4369120248767
97.415373298278
97.4079479080053
97.4091879290591
97.449270702322
97.4881135679147
97.4738852765476
97.479561440736
97.5107249513403
97.4881170935211
97.4635350368017
97.4137136075099
97.3392230443045
97.3355604252701
97.3740329843284
97.4367232108925
97.4940678088191
97.5322067101082
97.5666770393318
97.5866223729062
97.6608688095743
97.7257907446581
97.6973266332446
97.6494169768288
97.6937400606356
97.7463887345684
97.6901756560107
97.6043052126118
97.5786403103882
97.5824574087383
97.5602063645345
97.477590200413
97.3480464676584
97.2699052844918
97.3044148664211
97.3474589912684
97.2791682959825
97.2072118854854
97.2252756261403
97.2005680168614
97.1434130500251
97.1625112982622
97.1546529789225
97.0475436508248
96.9779459561128
96.985415664893
96.9899510287441
96.9801937206261
96.9685782321891
96.9124194291306
96.8105721981001
96.7333096191167
96.6738594826312
96.5729064064271
96.4357413355287
96.3306601017866
96.1970921667183
96.0473753454348
95.9731981287409
95.954361848994
95.9447037869526
95.9665396481327
95.986859963536
95.9930613059565
96.0420311257603
96.1193300939915
96.2052590176877
96.2835522589412
96.3995658178625
96.5001498934626
96.5557813894641
96.6613920260328
96.7860163604266
96.8877109707925
96.9627201797406
97.0372612336444
97.1067267777801
97.1118288450654
97.0880485051938
97.1448775820961
97.2229800122511
97.231477343344
97.2236861735902
97.2437544197204
97.2229965231839
97.1232119125334
97.0752997522432
97.0820364755013
97.0696107165166
97.0233906728792
96.896516346569
96.809947100459
96.8384461780899
96.8935132261427
96.9200066726852
96.9505196411929
97.011615313933
97.0619733839546
97.0569260879081
97.0312077252173
97.0534896733941
97.1056972888051
97.072098573433
97.0371528947995
97.1307520218922
97.2152551465693
97.2282956388112
97.207749835354
97.1742229454855
97.1871205367738
97.2286672391091
97.2265614576703
97.2436385962583
97.2869397165328
97.3019557104036
97.327194793201
97.3270549238706
97.3232674868258
97.3493996063786
97.3649340990854
97.3595175227706
97.3624214729168
97.3981735731269
97.3904061701538
97.4119551640097
97.4796563942731
97.5143241137176
97.5277467129649
97.5370863043419
97.5252505649177
97.5597892565693
97.6528534454987
97.6634676654202
97.621498521966
97.6076458773989
97.6032906098396
97.6449230304039
97.6989929565626
97.7292810968041
97.7127158588304
97.6745406898008
97.6440149095133
97.6045400118284
97.5875801801299
97.6282387959012
97.6511238810556
97.6320580822344
97.6429506105492
97.6426401651978
97.6015285123617
97.6349360223672
97.7220058867581
97.7107269064827
97.6732307805828
97.6747669852473
97.6883411825306
97.7181911609152
97.7106886079267
97.6731205912218
97.6983740517074
97.7441140335895
97.7472015792309
97.7568715101709
97.7834974224332
97.7837814927478
97.7425209510423
97.725376772983
97.7359281083197
97.7406058080553
97.7309799620688
97.7442810985413
97.7834578115283
97.7661695414265
97.7374455905988
97.744309788822
97.7565398344761
97.7654538807355
97.7498537610687
97.7486109872467
97.7720626318415
97.7862093410683
97.7926727200714
97.8050989984636
97.8293125891025
97.8007153068235
97.7470886924452
97.7773683717166
97.8114701724591
97.8247455557058
97.8364032629736
97.8129327835348
97.8132594509576
97.8466088539853
97.8542628530229
97.8643282489572
97.8594129379519
97.8351333836679
97.8275548490881
97.8160076441493
97.8258468795634
97.8715999470362
97.8975727007742
97.8932516006845
97.8696011952809
97.8787150536747
97.9066584548396
97.9092627732329
97.8994127354374
97.8994408032467
97.8884021511326
97.8548096971944
97.8624747699762
97.8946053764295
97.8821344524109
97.8693031651502
97.8998576640136
97.9110316566954
97.9109224649259
97.9208494385988
97.8770030679864
97.8321644787971
97.8094066607865
97.7801733200795
97.8068465816684
97.8295041950629
97.8037851014775
97.782052113777
97.7705030330206
97.7973386719987
97.8324677855624
97.8084476129547
97.7921149644058
97.8449784076594
97.854340167944
97.811895802276
97.8105643888065
97.8036158511724
97.8232935744849
97.8268284712835
97.7726449977385
97.7574633056073
97.7982673575876
97.8148622807781
97.8559291753714
97.9016298636468
97.9158070980182
97.9146314227342
97.9010245357549
97.9199627075599
97.9071755698292
97.902568243697
97.9723856816462
97.9429627946169
97.9085603934342
97.9605467013186
97.974280731748
97.9840074528154
97.9460338983014
97.9010013455967
97.9424009882233
97.9745038623731
97.9605750432209
97.9550798439175
97.9744778859102
97.994821735792
97.9743880662875
97.9321990876797
97.9110496713984
97.9500858623285
97.9797000010237
97.988400504117
98.0348653868285
98.0328166209796
97.969031019188
97.9713130018322
98.035252863555
98.0606752449565
98.0172616467565
98.0210009531907
98.0212771276606
97.9579464161268
97.9627578149488
98.0443916611363
98.0259008662241
97.9622221857856
97.9673997656029
97.9848654998186
98.0371590234068
98.0787410690931
98.0775510589705
98.1023493239366
98.1233404025183
98.0621462558102
98.0201123816395
98.031763236089
98.0343149196641
98.0418615668072
98.0273012851352
98.0092155858668
98.0360158168161
98.0518723776855
98.0317426157114
98.0524094439791
98.1536168642416
98.1673489720303
98.0686990937548
98.0135999575382
98.0246476292972
98.1025704403472
98.1660171569047
98.1782784970379
98.1137752474082
98.0284224298849
98.0580834028831
98.1188880846479
98.1292618160056
98.1251105638655
98.12102898648
98.1059667127037
98.0861914193255
98.1238880483139
98.1679477261632
98.1381405071769
98.1316584922129
98.1424516669706
98.1534886226749
98.1834999466356
98.1789835380816
98.1717982384625
98.173532810562
98.1686962142014
98.1415222813674
98.1078777826859
98.1538585392084
98.1895540541645
98.1815481588542
98.1635772443182
98.169984417088
98.1925955547872
98.1786341876931
98.1495797436926
98.1323087080204
98.1642507722356
98.2299709868845
98.3283416582441
98.3418903960667
98.2209240728113
98.1233221631862
98.1115112622898
98.1272178214198
98.1274752068861
98.1497475442875
98.1699821645073
98.1989454184654
98.1827619339884
98.1329890239351
98.0994803259652
98.0963975015934
98.1725657533026
98.2037594662276
98.1475008981737
98.1410554056007
98.1848781947344
98.13212193194
98.0781116574822
98.1194670588963
98.0930080155944
98.0562714232944
98.1355485555603
98.1712505306349
98.0952035823451
98.059048796249
98.0581297629057
97.988658113223
97.9249093783956
97.9450194061652
97.9583507786385
97.9464823199965
98.0108944693051
98.0150179197988
97.9943791017762
97.9993011210302
97.9895344198479
98.0302271278449
98.0660175901874
98.1336432737322
98.1990100412864
98.1715959800924
98.0818559541184
98.0479618838271
98.0948633886818
98.0658435432446
97.9825582134168
97.9921559224698
97.9854410609859
97.9738909312316
98.0399986821892
98.0683582219013
98.0629787195872
98.0882563609077
98.0527661103567
98.0129764407224
98.0686501828683
98.0532757503555
97.9161094826896
97.8134734318245
97.8498243633457
97.9690705633674
97.9969192509129
97.9987465593867
98.1003603638413
98.1206000869176
98.0822646705963
98.1612260588722
98.2099307497382
98.1498036976366
98.0870663453212
98.1086243050017
98.1933214807335
98.1844142093482
98.13879596804
98.1392129273498
98.0649644002426
97.9915935590241
98.0578802757186
98.1934029093527
98.248590553354
98.2191755343167
98.1202706270017
98.1170236250617
98.1897860563694
98.2151433887457
98.231424647326
98.2567239142177
98.2749840176969
98.3207009418999
98.3229521308841
98.4366548289534
98.5686107784104
98.4962255855945
98.340039050621
98.3511520501783
98.4745624985547
98.5946751838354
98.5145233234159
98.4810741790817
98.5783111655328
98.5347229845746
98.4095435788593
98.3470720628459
98.3939331301696
98.5410373241471
98.5785982919789
98.6007897586736
98.7563678079188
98.7270633263163
98.6866768433402
98.7688547490997
98.6530248659158
98.58204416243
98.6883260409425
98.7026540222715
98.7579231878782
98.8117803957603
98.7525236558986
98.7097908440445
98.7024351546501
98.9748946702567
99.3260151438511
99.1304826125598
98.840042157139
98.9245453648995
98.8712897439233
98.7621467013088
98.8785794638206
99.0076532185615
98.7964285241341
98.8975584213059
99.1976265558531
99.170374609185
99.1862369540962
99.260610240545
99.0876650388725
99.0482656227647
99.1455190169988
99.3452979324495
99.3800654530843
99.0639238913237
99.0062618914673
99.036574490581
98.9862997160963
99.0461680999211
98.8485630272155
99.0824111473806
99.9514740214517
100.054212379777
99.62325869711
99.6239038257166
99.5374303905713
99.1164069529297
98.9970621054427
99.0936720457532
98.9852916492773
98.8621311865793
98.7672529581736
98.9166261970921
99.065207317009
98.9264013644172
98.854040427639
98.8660950390927
98.7686576113962
98.6836132975054
98.5904045154674
98.6092211396808
98.5440524861183
98.4881309071014
98.5342688947835
98.5119854910252
98.4773512444947
98.4092682215802
98.4149743213992
98.462425038408
98.5022387557185
98.602405209007
98.576604375219
98.4820394883238
98.5557043515878
98.6802276522626
98.6930032751305
98.603468176083
98.4821612946963
98.4353529034557
98.6063382278101
98.6780705542641
98.4922418235559
98.4018580054516
98.5058188972302
98.5797327387885
98.6527041996337
98.7713042034612
98.6945128054884
98.6301401966616
98.789131489396
99.0302046831521
98.9924920362211
98.8664428940221
98.8944354051093
98.8704438603217
98.7464272923861
98.7256701679405
98.8354234909441
98.9004619948171
99.094298918598
99.4249248044434
99.3897340094168
99.2014114448612
99.2570004132197
99.5773783372169
99.7687456379479
99.683862189588
99.2341890884122
98.9259360978609
98.767109599014
98.756699814275
98.9356919296774
99.1364874556945
99.2253747865143
99.31601905403
99.3998034112705
99.4529221810849
99.5702778142638
99.6892736305171
99.3293820159347
99.1223615912675
99.260857240128
99.3755378001737
99.1926460970552
99.2714614709779
99.426246525189
99.4666522089962
99.3027453967348
98.9573672170375
98.6579538115526
98.7080994780362
98.8638690162195
98.8849761633549
98.6248949302484
98.7104604986055
99.0407705410567
99.0488673627634
99.3417011722996
99.7388276879693
99.5875902122728
99.3012622825897
99.1488817498829
99.0000985652548
99.0406390089924
99.2096024084965
98.8998435875571
98.5114490946916
98.6656017412408
98.8119291139831
98.59194515381
98.5040468003826
98.6429766451918
98.7060169559672
98.5568740011553
98.4894369596419
98.5269171162484
98.5763908262612
98.6513824842223
98.7572648214451
98.7570264796885
98.636578276406
98.6469695723587
98.836487412481
98.971294650218
98.9380918684008
98.7669716113556
98.7101502422984
98.74885556696
98.8289648912193
98.9284527980264
98.9492211942227
98.8324216206927
98.8040811137943
98.8529118811254
98.8890998528229
98.8738054599814
98.8631071946171
98.8925419905597
98.8640722582647
98.8497117792739
98.9429233244584
98.9510345120263
98.9591595889892
99.0101682225126
99.0449299910034
99.053177925323
98.9471060485591
98.8973870173619
98.986090392371
98.9318336550838
98.8486593967214
98.9125059813663
98.9603726791719
98.9372360495992
98.8768342787175
98.7664316637788
98.7531563186314
98.8131935800473
98.8705334420262
98.8763461014433
98.8550667163786
98.877553831846
98.8929012235649
98.8594804530646
98.8174917106273
98.8196623973004
98.8042388195695
98.705071824871
98.6608578651428
98.6814614582963
98.7262270189049
98.6675674349721
98.5958872894575
98.5693382915092
98.5900899296088
98.530676081081
98.4465158392838
98.4283939480461
98.4577027030501
98.3532398662638
98.3588569417545
98.4072104872523
98.4825242250326
98.5070730602218
98.5077569158702
98.4685273138825
98.41744953315
98.3891103741142
98.4066048663956
98.4197614414217
98.4387136032238
98.3938621002605
98.3391107350101
98.3512384672506
98.3951733043467
98.4003363147779
98.3950012318885
98.4020017405491
98.4852058823909
98.4677464056801
98.4236484163642
98.3962060179638
98.4158856175361
98.4108457525809
98.4092105686168
98.3046835052533
98.2585319412562
98.2064099161321
98.2795574169096
98.3162168670412
98.256485193749
98.2464305862546
98.1864393929284
98.1161568235989
98.084469275524
97.9568958464187
97.8036655518615
97.6453117936529
97.3609057637211
97.0617851557098
96.6599011291587
95.9985304456282
95.2183819580091
94.2190468653693
93.053946224575
91.7521535284838
90.2856619123908
89.0009760585851
87.8354619928011
86.3592073977289
84.8846689220826
83.7548789026035
82.6663204417252
81.5860175669031
80.4222689634106
79.2872088776152
78.2789496139496
77.3175704628646
76.1130053504865
75.3974789150401
75.1876478087084
75.341827810762
75.6243628060834
76.1473957649137
77.0674806707388
77.495889451332
78.2941984836999
80.1023386619533
80.5243126322038
81.9968163164388
83.1785877914416
83.6014133644341
84.3297154568238
84.9222470220951
84.9207638571151
85.4780954977344
86.6684971474671
87.0112212848344
87.4548146164036
87.6277466584997
88.2730363166832
88.9235798863706
89.0281292778487
89.6089524643768
90.486258503819
90.753382741878
90.8377552852301
91.4228339938843
91.9578778779968
92.1760256138253
92.0996543595835
91.5965351887993
92.6252269369268
93.6741860951118
93.3466158940516
93.2892635423862
93.9389761600521
94.1815545996549
94.1733404702704
94.1278684488467
93.9187363028527
94.0801011480931
94.8381243616591
94.9552988215619
94.8368498314101
94.8278700591363
94.957220252804
94.964707891696
95.1675231181233
95.3645027634844
95.1790184648606
95.0043618963126
95.1744217924238
95.1881947944869
95.1247557595155
95.1927673749398
95.3642156923353
95.5724277146473
95.7118821692681
95.9193776155469
96.0930648432853
96.212815328204
96.3078992552797
96.3705646919689
96.4005863543159
96.4395058960296
96.4132957413214
96.3554607925751
96.2281749979628
95.9922928170267
95.6004214111987
95.1776531132177
94.7485133747114
94.8282413018981
95.475791152084
95.7192184950993
95.8119447729586
96.2307192045072
96.4897666630882
96.5685255422172
96.6716817003867
96.4263857358826
96.1929913337074
96.981244359968
97.1654254121054
97.1696264979953
97.164395930635
97.1113077144249
97.2204865032832
97.1317050696774
97.0576182243756
97.0061811226861
97.0063436108008
97.4193252753613
97.5706377490398
97.3753938387271
97.3045601296103
97.3892830073872
97.2796872538385
97.1191093156961
97.0445433627819
97.0274984548469
96.9398457627936
97.1823648176697
97.262145699275
97.2934894363468
97.3750879511131
97.1922816825855
96.8072846400198
96.141285030413
95.0879208229773
94.2510819159867
94.3379695733911
94.9484650996213
95.7156015453464
96.3717703418036
97.0023989637281
97.3689431003405
97.3653660351959
97.2920540832636
97.3062584127779
97.2707491575532
97.1361185343473
96.8857207513016
96.6075983577696
96.3152406436764
95.9665184254231
95.593754951955
95.142599409068
94.8670584430156
94.9866720593357
95.1549689586817
95.2894579671135
95.3893239718312
95.3635569053141
95.1075025845939
94.8065614583212
94.7273290578432
94.8810245439046
94.7650755406765
94.7696817301299
94.7773712277239
94.9309695774389
95.1285753179415
95.179104444131
95.2294119582241
95.2917593702286
95.2632437447816
95.5219076761908
95.9611720371989
96.1540365355563
96.4089238623209
96.7136561670508
96.8904699403693
96.9144538310859
96.929850039981
96.7751326787497
96.3902653737717
95.6975597794628
94.5265249074852
92.85254523776
90.843349747909
89.0284412706109
88.12253357643
88.2513496125024
89.3579752120612
90.7509542513688
91.7693125955623
92.7003949541667
93.5138701467523
93.9861721557876
94.4714400671243
94.7244665772152
94.7698773670032
94.7789444577868
94.8607143242448
94.8850861241312
94.879716029965
94.883717612259
94.8654450126335
94.78701937569
94.6206306188897
94.5126649163544
94.4289353996017
94.4240508265859
94.6462371299289
94.9640180120289
95.2642177259414
95.6429630998743
95.9471988367222
96.0669711451144
96.0386748302441
95.9045323055888
95.6281959695299
95.1267066505376
94.2764743465619
92.9855817271953
91.249729095307
89.3589989893977
87.7960121621933
87.0947209984045
87.5942805838245
89.0387675003394
90.8919234426055
92.6567284485653
94.024380973415
94.9060091337568
95.3840145181533
95.5614594421575
95.5528728799991
95.4470081069456
95.277092389555
95.0888800440004
94.8514076169432
94.5785533734662
94.2881684011385
93.9522723542446
93.6065981356321
93.2808776005
92.9523668105216
92.5747814588183
92.0926273013298
91.5063895154321
90.8258363484733
90.0806189063034
89.3486663012289
88.6546041862808
87.9698083103301
87.3134013074999
86.6729880269358
86.0274559143566
85.3940389167373
84.7488056787494
84.1095707172958
83.4736867044363
82.8099114524584
82.1665688476006
81.5113114936481
80.8255785075203
80.1284246382644
79.4324769144389
78.7749868995148
78.2009320730709
77.7537717093709
77.4055932354096
77.084758246919
76.7518073781542
76.3928890006477
75.9961377737284
75.5944340066164
75.2078579827817
74.8521457137064
74.5529977017374
74.3452211593992
74.2408089343499
74.2724755929957
74.4327511452093
74.6993411549599
75.0804402308248
75.5370487037687
75.9988105131973
76.4429292518851
76.9007945231818
77.3865200566179
77.9285908503875
78.5460691498317
79.2238954359925
79.9244989816579
80.6465209539839
81.3772142167733
82.076317080937
82.7547134795462
83.4095802703304
84.0747512004096
84.7579063545637
85.4347358996025
86.1103311415583
86.7800080403538
87.4422294226615
88.0857102380984
88.6540141963618
89.1570707332047
89.5946471275746
89.914572296032
90.1220422148842
90.2387270009459
90.2282619043761
90.1679131572309
90.1783164124894
90.3098651213998
90.6241422798915
91.1128487381462
91.6843650010346
92.2125215685263
92.6090390184185
92.8413577088262
92.9498376501699
92.9920193561066
92.9602502737203
92.8495650804939
92.6327528818722
92.3152805418834
91.9560552765944
91.5233454470969
91.0011096790808
90.3879690046217
89.6545630369512
88.7907448725787
87.7732784236644
86.5953418947974
85.3249110906789
84.0507441244165
82.8625047623836
81.8236806170112
80.972082250401
80.2685450582242
79.6856482653665
79.1914145410268
78.7938399175861
78.5528035343338
78.5049461001918
78.5908786072626
78.6312610604795
78.5474931422631
78.3223841844888
77.8979271079113
77.3263006741538
76.7352302787513
76.1988996770788
75.728253496925
75.3412925156679
75.0733136450844
74.9170132332687
74.856413475534
74.8715140628082
74.9369401112917
75.0343736231361
75.17757076577
75.3748184278469
75.6568382726891
76.0516654347899
76.5446787441096
77.1090210175311
77.7281406269865
78.3801774569025
79.0414707018685
79.6698443998289
80.2837529282872
80.8585240487909
81.3960760452851
81.9169717318573
82.3761432765636
82.749820833094
83.0383450046889
83.2308452582429
83.3390258703811
83.4026346580797
83.4113839904864
83.4070793693751
83.4469167611702
83.5631519867871
83.7610008605299
84.0541564702506
84.4218342774828
84.834451052462
85.3050710318605
85.7780222447873
85.9553359459154
85.2676237230675
83.5716738200994
81.6552401841563
80.0469016385713
78.6302248841815
77.6069678486437
77.4824652592484
78.3409582661333
79.6712531929089
80.932098587483
81.9531462282637
82.7786898257054
83.448074059024
83.9840811856247
84.4458770880927
84.8612619132619
85.2552951317537
85.6095745271455
85.8632237866167
86.0018487698169
86.0983563353987
86.2136550618675
86.328333887733
86.4507387796702
86.4904221839868
86.3585037864543
86.087073896866
85.6609424789951
85.1531860472776
84.7362640377128
84.4884494856182
84.4727451512585
84.6865462129386
85.0404541261919
85.42685008894
85.8026043073508
86.2248344077369
86.6299549383332
86.9492413253887
87.2223977799308
87.4936661502761
87.7559261808245
87.9999670635308
88.2035291867275
88.3821799543633
88.5479314211472
88.6881367099041
88.8561328669131
89.0104999012308
89.1567923813082
89.2864029178282
89.4096874446675
89.5349124073124
89.656646961665
89.7901743739968
89.9356074312345
90.0804701204798
90.2104615839249
90.2981265511477
90.3591619450513
90.4260351599698
90.4817872218978
90.4457077713194
90.3498319409948
90.2354777700566
90.0076524730597
89.7706268529165
89.5981692056798
89.4894420320171
89.4347805431079
89.4484508317105
89.5372186209369
89.6540082033962
89.7481713701052
89.7962125565764
89.7502985299299
89.5634241916401
89.2002468279932
88.5860869990539
87.7782310097658
86.7805225314003
85.4687616721103
83.6867591599079
82.0614010472231
81.9516466712113
83.1927674069463
84.5283674867619
85.4220018122952
85.9943990018844
86.3656065909484
86.60394299899
86.6826488334674
86.6407009594309
86.5113214196816
86.311499722888
86.0750004032364
85.826759326725
85.6196348837352
85.6424458737164
85.9462489501664
86.3658085744001
86.7369859422652
87.0491450901825
87.3919074508283
87.7366319970781
88.0428763776874
88.3644171307619
88.642080185295
88.9003607079639
89.1322423280113
89.3618422666491
89.5451924713472
89.6054515842812
89.7205166809867
89.9027967156647
89.9610023543981
90.0238149012909
90.1268001625074
90.2035234650989
90.2689470729578
90.3730536400353
90.5237726473583
90.5796264100868
90.3034890960157
89.6635864988758
88.9612559829695
88.6869226305578
88.9908579325016
89.5511014602423
90.0508878317539
90.5063176058705
90.8995391577135
91.28422974613
91.649897203564
91.9211983089103
92.2141024849771
92.5268522812389
92.769255894191
93.0707150472603
93.3908751917923
93.6583245241952
93.9055897516618
94.2071329590773
94.4836434914015
94.649110172767
94.8259425764942
95.0787090703275
95.2426279244586
95.3877935329784
95.5506982750459
95.6598819440619
95.510527304955
94.8965171594943
93.8468401606781
92.2928050624264
89.9746353713961
87.2843089896463
84.7098621188644
82.2863167209575
79.8424444728143
77.4311920941347
75.0302925290278
73.151010097351
72.1306697606419
72.0024953739421
72.5946750715717
73.2520147835623
73.7976606319873
74.4990556776082
75.3492740741194
76.2369994092272
76.9029932773147
77.3696710956296
77.8778298201092
78.3453970245736
78.9170648425828
79.7075947378975
80.5567478843357
81.1709706103035
81.7589926296599
82.5414508802361
83.1666865194973
83.4509381670918
83.6969567072543
84.0036372140799
84.0777425751507
84.0820212772317
84.3699387220028
84.8730950713003
85.4111511360392
85.6989727877894
85.6313338319004
85.4798163523248
86.1885121388105
86.7967135793317
86.9898124563392
86.9598906290106
87.3111958124264
87.6006081774006
87.2982716371277
87.1017915426245
87.3761810895454
87.3771252795754
