1798
3999.43349933624
650.420452594757
1
128
4
96.3848069680216
96.369205373859
96.3402584173079
96.3502473933303
96.4323333147758
96.4538447399488
96.3671646968663
96.3494711880589
96.4411806836898
96.4463356413124
96.3838445976051
96.3740101036615
96.387030429444
96.3879205959563
96.387342267496
96.3884004316166
96.4168838738889
96.4306464216264
96.3801454788042
96.3063615659317
96.3786670526651
96.4417077277731
96.4159732999663
96.3765777176448
96.4039412960087
96.4010388365662
96.3395982237336
96.3206652514977
96.3576714408429
96.3726444458254
96.4102280357029
96.4904362700736
96.5209565742626
96.4782689270323
96.4533318499486
96.3500854100857
96.3976933416927
96.4562519461896
96.3282497481311
96.290903473205
96.4334243585279
96.4284089006597
96.3322327758637
96.3975548465114
96.5232308581673
96.5198943984763
96.4771782662441
96.4323655310472
96.3399351787634
96.1837078419779
96.0727814931413
96.1402587320558
96.3477823029225
96.5597171436692
96.6985615002742
96.6051425342714
96.3583030488965
96.2962533544728
96.4281304271969
96.2698324394359
96.1902528618396
96.4226502814361
96.4124650845179
96.4077516351536
96.5615016760472
96.4662828050981
96.3683049730649
96.2356831648566
96.1410903913083
96.3916709808707
96.4713077561732
96.3341023856975
96.4897786711703
96.6163762912077
96.6142312893847
96.3741864483653
95.8586554067408
95.5203063106054
96.2576116693226
96.9389866670632
96.9580443390985
96.7620336215898
96.5418460816852
96.3653543561485
96.152536429594
96.0008334643556
96.2272328480744
96.5819632719315
96.7008814330891
96.7660131242924
96.7649337593832
96.6154107810273
96.5706781095898
96.389874306955
96.0962693843345
96.2012285842796
96.292397538293
96.2872824342249
96.622555037885
96.8288959436594
96.7248377095278
96.4711879907134
96.2794091202214
96.3430620289609
96.2691104547075
96.1697479347479
96.4421555436768
96.6267009927318
96.6400965301227
96.6536001379155
96.6151557345739
96.5960383556278
96.5382625594895
96.4028627712251
96.3333241318223
96.3379215706343
96.3013067092972
96.2965308004186
96.454212090038
96.577847019436
96.5602931549696
96.4127984319259
96.2958761546047
96.2933642777304
96.3241380289757
96.4630807115318
96.5067748832169
96.3355569119704
96.3140609618912
96.4265167239974
96.3376384872855
96.0765552427448
95.9210218234066
96.3397083003337
96.5511968463214
96.2674360312392
96.446917860227
96.8729006523556
96.7541963406633
96.5442078134964
96.3915448333277
96.2748466884453
96.4309001412457
96.7686327753087
96.7761248448735
96.5877881604646
96.4899774033392
96.3834878710468
96.4037465121932
96.5408410553444
96.6461004311943
96.5136113572341
96.1910277017166
96.0585061997913
96.3336725205495
96.7245590087742
96.846754728741
96.6752648403967
96.4738536643948
96.500245481338
96.551206181719
96.4752332730455
96.4561336656122
96.4033944092512
96.2647016636235
96.2050254458749
96.3792101027032
96.5801620479527
96.7200759225162
96.6956625242822
96.5480039039574
96.2992515831765
95.910143768525
95.9490707984634
96.3955704456685
96.2992125541293
96.421968902839
96.8688338996404
96.8857790098793
96.6799941571158
96.5393394446106
96.4033769705589
96.2171667091744
96.1328969547929
96.1811867507295
96.0596313191956
95.7910287912557
95.8194258820118
96.2528524856036
96.63895863804
96.719417970594
96.640468440696
96.556765730993
96.4183807517063
96.2411067136403
96.0910853914374
96.033997824145
95.8045600078803
95.7862527001195
96.3567438431497
96.605893232245
96.4938118364807
96.2406018641791
96.1714761957864
96.3277293795933
96.315414593525
96.2184621330342
96.2630211997475
96.3521531888646
96.3923290046506
96.5102551985212
96.5928192663869
96.5613343488615
96.4299502212912
96.3348116713414
96.3440416752879
96.3984936467056
96.4450240516349
96.422979104232
96.3721519221554
96.3615014434347
96.5014858293327
96.6557879755202
96.6370110383045
96.5885551943364
96.5430119566452
96.4778891102184
96.4268171582657
96.3340918702727
96.125644724883
95.9278593785806
96.0467627076214
96.4229903593437
96.468225081505
96.4606319805091
96.5465117914635
96.5824878033437
96.5162716274692
96.3607182778649
96.2785428930486
96.2589323035688
96.2113418867098
96.2567497136017
96.2678056450095
96.3267097964475
96.4666453306866
96.4529065748785
96.3445052292148
96.3647545534627
96.3958331168406
96.2815826965519
96.2525888087002
96.3322070860179
96.3177229808851
96.2733205636577
96.36707981521
96.590863268145
96.6686126072701
96.6481986067319
96.6137830136194
96.4539142454399
96.3367002032342
96.4019826416051
96.4217300314752
96.404029475807
96.4181729362981
96.3980949105165
96.5346276392881
96.7132148088536
96.6400396740981
96.549501481954
96.4802437778517
96.4203686105511
96.4817057107858
96.5204750122096
96.4486125530292
96.3589740516332
96.3563206214814
96.5176798173071
96.6552393127141
96.6663116238844
96.5504637332439
96.4498938289306
96.450200072091
96.4713017854987
96.5390688006015
96.6435974969604
96.5965953225637
96.5159462701936
96.4511570227678
96.4276672685445
96.5216957416163
96.5682892783943
96.4803963592188
96.429453260208
96.4369387252602
96.4071028429794
96.3149559311066
96.2520077258396
96.1782792362002
95.9765564623214
95.8922547292473
96.0062283860734
96.0379307539797
96.0283321769424
96.086059270918
96.1019555940309
96.0801719243593
96.0234444435462
95.8862926103104
95.9722818468244
96.1637874124345
96.0584747806665
95.9996514596484
96.2112519978556
96.2890919498913
96.2199645574351
96.2732819794644
96.3228560286661
96.2611257642864
96.3016495632242
96.4662894909925
96.567217820308
96.5085723861131
96.4071883100979
96.4100226998056
96.4995615241017
96.5318211562338
96.5434154086461
96.5665864989196
96.5393480997943
96.4862351528463
96.4810608606305
96.4715306115852
96.3926034075028
96.3575863116105
96.4055060628983
96.4467687936181
96.4373791683306
96.4433559308275
96.4947995660038
96.4715950972321
96.4441727594382
96.4826809642797
96.5067650536135
96.4657801109591
96.385387524141
96.3272753446334
96.429088834768
96.5219342040395
96.454145628191
96.3492131487068
96.3415618141506
96.3347157701047
96.3139938898823
96.3379047912973
96.4078254387772
96.4751986851268
96.4200670029444
96.3203485172605
96.3194939704608
96.391460522118
96.4920123750127
96.497659961007
96.4282239636442
96.4196136783895
96.4690081604682
96.4027913579699
96.2313215944251
96.2116848717016
96.3212465519716
96.3858712984723
96.4530780122954
96.4845813583877
96.4640536769395
96.4518125809988
96.3783194151556
96.310349961105
96.3183425205101
96.3660998031555
96.3641877126319
96.3293690148073
96.3749131490966
96.3753484338057
96.3651695129308
96.4266358922865
96.4463314625757
96.3960878042442
96.3732403879791
96.3426119568081
96.3059903359657
96.3409329551593
96.4393548901518
96.4983868637081
96.4430294690402
96.3835030513888
96.4033112290518
96.4280344721764
96.4516292939306
96.432790153433
96.3881573240615
96.4272446113551
96.5075970908858
96.5214472735131
96.4861704774568
96.4608650873586
96.4845143896325
96.4954529919384
96.4755241552435
96.4562050519237
96.3965222979019
96.3623815330216
96.4422648805062
96.4624412353154
96.3896492988638
96.3214746947209
96.3249292116924
96.3866869265633
96.4174368759949
96.4199162793657
96.4024612177664
96.3736564158012
96.4003880506257
96.427642696331
96.3963194134982
96.3752798001693
96.4359055245549
96.4463240183408
96.3954840823196
96.4283669865192
96.436189322586
96.4311753874857
96.4747267028781
96.4564642146608
96.4494607406689
96.4224220637634
96.3863644978021
96.4045129784694
96.3936343477009
96.3891308608851
96.4309975149904
96.4191617498364
96.4274431042821
96.4834584528637
96.43688654157
96.3638092428141
96.4153929519967
96.4431951595465
96.3672993076484
96.377412727976
96.4218078875191
96.4301639852778
96.4097752830272
96.358711106962
96.3532975742815
96.3843961937993
96.4514797974221
96.4780851186555
96.4301863418088
96.3744388454939
96.3508608530745
96.3386064783627
96.3565234433082
96.3866422605999
96.3479113239067
96.2731741523711
96.2714248157799
96.3443451125112
96.3875962337035
96.3504635451062
96.2887556921599
96.2260546633757
96.1950662208887
96.1881738310081
96.1995892476283
96.2166282642024
96.2400837867773
96.2080571057745
96.1117194515655
96.0830722042773
96.1159294413074
96.093469433785
96.0357277066019
96.0503682728246
96.1042114438396
96.1275532942672
96.1924282460059
96.2209203327092
96.1727179451826
96.1224284086414
96.0476484747855
95.97573521619
95.9408395776631
95.9356255126587
95.9602069047982
95.9894388997093
95.9867852982446
95.9431559455942
95.9750322506132
96.0188561380545
95.9883811643691
95.9900356317026
96.0007577613507
95.9267685245812
95.9162863294709
95.9349347875177
95.9073748829974
95.8999726555012
95.887271848576
95.9103535049014
95.9841826407836
96.030933163948
96.0892367110592
96.1728884979576
96.2148866425088
96.233530489398
96.2097749441516
96.1781332084901
96.2405504372454
96.3108655276905
96.2659074066157
96.1797049365161
96.1382982902201
96.133051710137
96.1318009318171
96.1131650844825
96.0231222399775
95.8619582844238
95.8048215527628
95.8537375590865
95.8286488920332
95.8014149350979
95.8196618377175
95.7639842994298
95.6711374889983
95.624332356685
95.5877284039278
95.5065007297587
95.4246907687347
95.4081720422907
95.4580105556382
95.5114404827775
95.4820563424856
95.3996918713028
95.2889944141312
95.1680323631907
95.056101174594
94.9175869939825
94.802301617239
94.7186339732654
94.5665338153345
94.4004815011027
94.3172381597308
94.2339451462166
94.1706602027896
94.197564295645
94.2366591585387
94.2696572728215
94.3292847692481
94.4081157003938
94.5245469152806
94.618082779793
94.6887361118403
94.7874129493195
94.8759132196911
94.9506428829407
95.0615816528629
95.1874775023117
95.2804683171746
95.3761279088944
95.4710955016538
95.5255917536077
95.5442626160491
95.576893259904
95.6096853287829
95.6415960856239
95.6773106841636
95.6885640880774
95.683097718595
95.6326906699938
95.5911229041187
95.5386469886313
95.476116914341
95.4154938091641
95.2984576453545
95.2287945461351
95.2465890506648
95.2630876552252
95.276197193006
95.3253452188646
95.397449665018
95.4239395062999
95.4212587327797
95.4370336970063
95.4436849666901
95.468439821512
95.493860463004
95.4996108592466
95.5487608804043
95.5716197271349
95.5783406911526
95.6248136881769
95.6374653990864
95.6015610155565
95.6159117882649
95.6355716231988
95.6516542880888
95.7080160534065
95.7094442908759
95.731573920535
95.773261522775
95.7541756811854
95.775220681305
95.7853302604715
95.7472978697212
95.7554359373366
95.8026127644298
95.8157486735595
95.8514314315224
95.9280015700434
95.9560992917106
95.9458199927266
95.9885283792644
96.0390186396669
96.0658738003362
96.0866652817177
96.0742325945575
96.0538085193563
96.0744846499303
96.0864103678629
96.1032906687918
96.146358325285
96.1619670598154
96.1441308694843
96.1418775222526
96.1333265222373
96.0969937683635
96.0902115648009
96.1126352830152
96.1064974612607
96.080877411762
96.0861681886509
96.0816289311602
96.0739308309015
96.1087326046739
96.152046730389
96.1474753726731
96.1220858588586
96.1047370026221
96.1136445658212
96.1639751859381
96.1871626139719
96.1755837670654
96.1982703148659
96.2331716627374
96.2456341484177
96.2333129386158
96.2418798797704
96.2495265112932
96.205472289458
96.1986035860693
96.2399524070458
96.2333893237508
96.1934449791913
96.2000034062952
96.2397325225819
96.2240583588335
96.2027417061975
96.2299030957657
96.2583171517376
96.2827932714029
96.2715528397824
96.2291135158151
96.2491702198569
96.2840473722336
96.2750533663154
96.2825842555708
96.2963985540304
96.2545957751493
96.1995362027854
96.2515016659409
96.3297342566297
96.3193854636631
96.2895155593855
96.286118381224
96.2808900858651
96.2854274467481
96.3206213852736
96.3409021467232
96.3274204582728
96.3271938818425
96.3395849046918
96.3354693824624
96.3428188243114
96.385331950464
96.3973962601295
96.3978452380951
96.3907157699275
96.3621943626079
96.3504897634765
96.3663242136042
96.379303778006
96.3917847422999
96.400786678283
96.3769048962189
96.3621289188093
96.3815523949156
96.3941434503377
96.4028123442895
96.4062920892541
96.377394566331
96.3846872956897
96.4026102974807
96.3793244583923
96.3392758404839
96.3177870036527
96.3310995558282
96.3482968394115
96.325625990964
96.2920477053803
96.2735568222187
96.2670312992293
96.2716911623471
96.2472735259214
96.2398755586539
96.2719473064167
96.3125809853504
96.3292185913002
96.3092563921546
96.2668488989168
96.2452167888219
96.2710451422761
96.2741468406885
96.2496348015544
96.2742851096114
96.3086324872358
96.2851292201093
96.261331709943
96.3152803027708
96.3533495666923
96.3258329423577
96.3330193161768
96.3669631980659
96.3642905930139
96.3496060464201
96.4476666075103
96.4819373195828
96.4198528441544
96.4461443955144
96.4742934511512
96.4381329799902
96.4457484944687
96.4675505707021
96.41341426013
96.4084550018087
96.4906000640242
96.5172109791888
96.4829730752869
96.4727551803557
96.4571488229388
96.3963284631789
96.3800671824359
96.4538807970208
96.5251691411348
96.5136315614663
96.5643441225709
96.5870670148752
96.5181552669622
96.5105153793597
96.5167443281745
96.5045649012612
96.5464147788164
96.6128885915977
96.5853685988824
96.5510851225546
96.5618834694897
96.5774618884184
96.5674289861546
96.563788333037
96.5604899285479
96.5866660970055
96.5665718825469
96.552647339146
96.5706269648106
96.6090573421268
96.6252566712143
96.5764961547636
96.540066898786
96.4972715073134
96.5231881801068
96.5642032303754
96.5811669232241
96.6255028355518
96.6304009170941
96.5848706520924
96.562030959218
96.6223670131932
96.723439437085
96.6970079928108
96.5569869466314
96.4719197440116
96.5423441914902
96.6576643879711
96.6679244681381
96.65147001211
96.5893793320506
96.5732162395475
96.6501617502093
96.6755720270673
96.6694879748352
96.6558617990399
96.6570638771654
96.6663194474103
96.6794398297539
96.7171634200516
96.7015069766312
96.6853712156165
96.7401285186426
96.7743672605384
96.7368334665664
96.6865925449441
96.6944825820553
96.6966503975524
96.7142820986256
96.7689588589484
96.7277961536557
96.6867750140605
96.7708147793194
96.8044429116809
96.7617030355212
96.6918808681937
96.679193848346
96.7127708825667
96.703311582134
96.7157253583551
96.6902691687964
96.6733874517617
96.7480280348988
96.812755735764
96.847481931357
96.7984183060601
96.7104165644641
96.6758022843942
96.7144997913018
96.7521331825219
96.7551771270143
96.747263258995
96.812850946911
96.8328249317614
96.7256020676412
96.6484114352866
96.6303577878667
96.6568552346579
96.7234827082918
96.7270067106179
96.7325649001872
96.754409846685
96.7101374476655
96.6543315649461
96.6221637397278
96.6088271283373
96.6371102416004
96.6706608813479
96.6720487778921
96.6396239178336
96.6074760565513
96.6049649506059
96.5796876997184
96.5539235679031
96.5498100710293
96.4963446919754
96.4866451501478
96.5473127474655
96.5190506554831
96.4718574504837
96.4626778233115
96.537627942516
96.6150132840081
96.6435910012611
96.7091692799932
96.7292621569545
96.73211201068
96.6976660169124
96.6886665970831
96.7812418076564
96.7692996323846
96.6093383181426
96.479865317763
96.385339947523
96.4183244529569
96.5698854625275
96.6123424242632
96.6602765832662
96.6842612514431
96.5874809624689
96.5593526873814
96.6352029383566
96.5965006313757
96.4594213693589
96.3543214250024
96.3590299868245
96.5047220504942
96.5829010173295
96.6045443931503
96.654948500319
96.6346117083725
96.6564639466189
96.6806274300363
96.6420711882318
96.6613205583597
96.700931665736
96.6926019911133
96.674991295612
96.6365282734168
96.6074349903271
96.6594379319121
96.6546565027894
96.5929033095014
96.5883383813651
96.6484690263348
96.688061581991
96.6374430845328
96.6165713604505
96.7128333253774
96.8238990219373
96.8636555062476
96.8579128560998
96.8160291836248
96.8051746091149
96.9229069797503
96.9907711409624
96.9668046682789
97.0986940052392
97.2103616437435
97.1492386710924
97.1062657260305
97.0877459335041
97.1967297774675
97.2412513504809
97.1981360157706
97.1970157519965
97.0981260969561
97.0504416327361
97.1290228638923
97.1622076057938
97.2222980395147
97.2597633133284
97.3361738081069
97.439401278783
97.4095481273439
97.3560456413735
97.3058421061475
97.2611727553581
97.263550345524
97.45919031537
97.5167572531003
97.4294617169536
97.4130939486969
97.5098571600655
97.458587455907
97.2516278523019
97.4652386426572
97.7740816666222
97.6670240915112
97.549902056342
97.6530024314804
97.6403609950631
97.5808301868669
97.6918181536994
97.8139689542628
97.6715060032872
97.6144304307808
97.6993693765924
97.904964696758
98.0230304789181
97.9978090326136
98.0035776714997
98.0715722888243
97.962115855349
98.0118510228146
98.0619957690153
97.8293598328853
97.7042384711512
97.8100493878537
97.9330932529758
97.7640264338778
97.7816165054104
98.2721020398775
98.729444792979
98.7409773660549
98.4202730238986
98.2400179184009
98.1595288317454
97.8733153186774
97.7877757650797
97.9743898268456
97.9957549742271
97.8789343573038
97.6869122325138
97.6845291711182
97.8120607342282
97.7557410555888
97.533163693318
97.4641166563576
97.5120342860163
97.4781850071313
97.3571236134361
97.3766545175588
97.3490549667067
97.3306838516654
97.298326251564
97.194058819877
97.1787015739583
97.1179761451208
97.0966825941035
97.1605456340046
97.2036659979997
97.3142293511277
97.3250157785796
97.2338092623414
97.1289746289086
97.1575161318097
97.2918383180101
97.3412090672953
97.2429878324551
97.0995112570906
97.2425339890456
97.4454596691604
97.2875920405121
97.2087027528611
97.2923823904523
97.2842722828587
97.2269735607258
97.2831440157464
97.3830804806777
97.4539022372056
97.5435331531
97.6730684350492
97.7214006236914
97.6260918112273
97.6571778300256
97.7550472486044
97.6038694533207
97.5497718681159
97.5821933753106
97.5599658905979
97.82471243067
98.2549689627305
98.3758622541805
98.1409501618425
97.9702252334756
98.202517131748
98.4613919487968
98.5347746355189
98.4666635583838
98.4117413926554
98.0151759643786
97.9491862271243
97.9415679467629
97.8530935941263
98.258085339385
98.5980483067343
98.517410380087
98.3256518569464
98.3285978635821
98.4263658380921
98.282525965078
98.3514055715218
98.2449990352291
97.9638560687296
97.9191567034953
98.2472560150415
98.4441746152572
98.5411205280455
98.3920611165337
98.0999336021298
97.9522451263091
98.0020952371318
98.1229001638595
98.0176229510143
97.6889364251251
97.6400881267491
97.8320201844629
97.7723872183332
97.6640083546855
98.0072562205647
98.2083270396081
98.1809965826393
98.1802665618214
98.1881441757265
98.1686423998084
98.1707083472379
97.890415109896
97.6256025032724
97.724550297181
97.8957411943699
97.7311807210705
97.5529704524852
97.5601497074919
97.5836407338215
97.5512163067541
97.5754409651095
97.4215385962685
97.2273008868681
97.4087807686417
97.6617184986239
97.6446713624031
97.6310103970501
97.6814891631479
97.7026953957863
97.6922368471169
97.7694417771559
97.7124259275691
97.6353597008053
97.6724842308139
97.7439945518386
97.7849171234188
97.8076167752452
97.7586545635136
97.787842239122
97.8133601031637
97.7849069583147
97.764394101268
97.7504179348702
97.7949383351117
97.8451505288949
97.8558682041576
97.9164687039576
97.9148838392286
97.8911668790836
97.931708236556
97.9727743202438
97.9301217375435
97.864859930065
97.8582602881931
97.9393280979952
97.8973433048436
97.8794760551705
97.9190659992968
97.9443177842224
97.9406526420128
97.897489743115
97.7477079705169
97.7119940880293
97.8842981567589
97.9973549597222
97.9855672503954
97.9614280656534
97.9159426813702
97.873058288769
97.8863105747145
97.879770965639
97.8198951644708
97.7986507518494
97.7763752113083
97.7684920628085
97.7267227249366
97.8347405178856
97.7932428588584
97.6994534241426
97.6651585708105
97.6409502928799
97.5715938694651
97.4779112526762
97.4698639969546
97.5516524803766
97.4908690028175
97.5494647570406
97.6265926820933
97.6314184878498
97.5786640626798
97.6193088332318
97.6491967153327
97.601421710645
97.5320434970506
97.5576305555942
97.5879363979295
97.6163070424906
97.5887745700182
97.5539447290623
97.5876070226087
97.6473511801114
97.6782017120384
97.6381045710592
97.5588577401357
97.7226821334304
97.7819113950909
97.7234033697146
97.6731354347102
97.7204234165271
97.7495043769129
97.7911570554814
97.720528538267
97.678664484178
97.6241294095246
97.6563022043144
97.710786509523
97.696707546355
97.6970229083128
97.6614204781628
97.595043087719
97.5428974087844
97.4464043334513
97.3274026493503
97.2025111264225
96.9594458865592
96.6471697218941
96.3287498082831
95.6999864409354
94.8382572459491
93.6942667719601
92.4215477774646
90.9252290155578
89.1515564165558
87.7644467343665
86.4395160169488
84.7141681024112
83.0877456776073
81.5108218976165
80.000698184626
78.554457299914
76.9980878083926
75.5132770915
74.2544267111621
73.0097744959908
71.7864995423731
70.7704982621853
70.0773291163656
69.8385648977724
69.8871018456514
70.3525984648767
71.4946232782652
72.2620301112426
72.9096624811898
75.3212214948961
76.5437821750399
78.117063811213
79.7458795009323
80.1245720871434
80.6294009516047
81.3114188987007
81.1730864488453
81.543159354266
83.7364044535776
84.3646630423989
84.496936018867
84.3237002564586
84.9091795937034
85.9610170992775
85.9873226083227
86.4940379047571
87.8094768204125
88.1211916139558
87.8507003286841
88.4572015918882
89.3264409586539
89.5623267087516
89.1796244564913
88.0027625954291
89.4761515944171
91.6624185457253
91.0915906794073
90.4854844942721
91.4971832329433
91.9993270002973
91.8204211547813
91.6009511656753
91.159383641948
91.2132503039304
92.5819472896858
92.9477781459248
92.6039457425582
92.4177944388155
92.6365907448523
92.6409654521041
92.8334429230482
93.2653936829075
93.0287978441418
92.6091045367256
93.0148395992829
93.2185812491037
92.9937019115668
92.9297120872847
93.1102437389755
93.3742595238197
93.5433363839879
93.7768619149754
93.9669337538217
94.1102555660033
94.2081074857242
94.3102418419461
94.399023230345
94.4622963336861
94.4651104511163
94.4459001772303
94.3436459751296
94.123482902918
93.6967860355604
93.1777571558255
92.4980971887098
92.4757535131181
93.515504576578
93.8065620926763
93.626271556463
94.097957637569
94.6067181096644
94.680453655138
94.7169678051103
94.2213787761341
93.5645361939842
95.0738969340674
95.6735756902116
95.5745412186808
95.4667352836574
95.3408116166522
95.4774446577202
95.3364114467733
95.1499628700371
95.1027421623313
95.0623149261835
95.7998273431439
96.2272952208642
95.8807206659894
95.603553280318
95.8165740915759
95.7542769243138
95.4788946535261
95.3751618390426
95.4079499331528
95.2842207900144
95.681945673042
95.8900094665049
95.9077037571853
96.0279732257515
95.8450044772586
95.4512178811069
94.7005438186889
93.4491788339978
92.6911328215259
92.7665378544796
93.1002345911048
93.665746949263
94.3768816889338
95.2812553382661
95.924600585229
95.933206674664
95.7648727751811
95.8840785636866
96.0070426765851
95.922536873425
95.6341577581935
95.3322276347771
95.0432294237784
94.6159710828087
94.152875008031
93.6515526149479
93.3617933625627
93.4990893535476
93.5806122901522
93.6120743455975
93.7812020163648
93.9429026916731
93.6544406118821
93.1518324937529
93.0896704816197
93.5712691340133
93.4703392755466
93.3116719009642
93.2328432195306
93.3755749984938
93.6176100506681
93.6730642751032
93.6903414642874
93.7472470795236
93.6527144620188
93.9082143418084
94.5965205882967
94.8469783155058
95.0372397208713
95.4028533533784
95.7090966151297
95.7941004156475
95.8712126465136
95.837343727111
95.5423725076657
94.9665785285541
93.7431291671122
91.8063948760556
89.4374188597069
87.1977994574912
85.8901478675435
85.7340748027627
86.8034056212748
88.3996357399354
89.5308200223636
90.5197962499636
91.5550387236652
92.1637273235402
92.7795155272063
93.1847120547681
93.2261182431135
93.1729727776474
93.3246865724692
93.4478560054451
93.4592965942905
93.4834270038018
93.4858794699257
93.4330905639018
93.266342208966
93.1776628394059
93.0836263916315
92.9970390153883
93.1750389005363
93.5021961334266
93.8201435395462
94.3199238189706
94.8009004300452
95.0070532193161
95.0386248252618
94.9654757523046
94.7535580126486
94.2883394326895
93.4131672599842
91.9735180707625
89.9240155168305
87.6109933635169
85.6000178440804
84.533916755612
84.9525924915492
86.4777978126328
88.5033461697662
90.5526748804505
92.2607687898406
93.4269480579264
94.1181988478779
94.4522497276745
94.5377336831301
94.4813698201086
94.330062177971
94.1838481621918
93.97723455286
93.6757002525566
93.3714442991349
93.0359931377848
92.6310789903256
92.238759490681
91.8932878261206
91.5245374396908
91.0060480395186
90.3302663255378
89.5469759265487
88.7012269696607
87.8552780453029
87.0328551415578
86.2292040936977
85.4445361392708
84.6703597354381
83.8928258123303
83.0985316945394
82.3005575090009
81.5139438291947
80.7234548852498
79.9519292978042
79.2012284176703
78.4153947112356
77.5825048637816
76.7346087506836
75.8700217642797
75.0321508880226
74.294833560621
73.6858693325568
73.20491111935
72.780519211946
72.3395710267647
71.8672519893532
71.3465157478229
70.80687146169
70.2605824971013
69.722942100947
69.2553033295459
68.9121189930361
68.6947272882012
68.6468032783808
68.7746543286646
69.0500153097774
69.4742607018229
70.0040748330334
70.5675811429094
71.1193309419167
71.6815192813697
72.249149041683
72.8705054907803
73.6159199694038
74.4356126272949
75.2683283303542
76.1159278348631
76.9752551214438
77.7946638273007
78.5794173787058
79.3477050997222
80.1082446159817
80.8708649531752
81.6509144505671
82.4347450084815
83.1944830510473
83.9372828807075
84.6617805899182
85.3131089172812
85.9086603818753
86.4312706137938
86.857916631519
87.1789308817532
87.3767435173864
87.4476737747522
87.4445347481041
87.4776455763432
87.6169344848466
87.9432316430722
88.4697416097675
89.1186844767503
89.750625216003
90.2591635545483
90.6128911162758
90.8383886477492
90.9968463924044
91.0711616098632
91.0419075816953
90.9036238111406
90.6652964017074
90.3523375181774
89.9556610538238
89.4538680379844
88.8296776129817
88.0627300375212
87.119264562562
85.9798989167058
84.6434953534535
83.1588553409769
81.6063989937342
80.1382801341375
78.847414414359
77.7633301386469
76.8661037111657
76.0836918292401
75.3818692408769
74.8358344003497
74.5280040040467
74.4625391927114
74.5402788839211
74.5676690603065
74.4762246391673
74.243871402134
73.7937462538215
73.1478745282487
72.4210109830818
71.6996094778741
71.0306638636749
70.4911027123443
70.0964494532321
69.8229536787046
69.6646902849577
69.5847163835259
69.5860231778501
69.6471917041562
69.7641247934827
69.9565417830999
70.2664573524088
70.6983268967324
71.2343650634691
71.884796697824
72.6188212741131
73.3913458256693
74.1678227235652
74.9189594323845
75.6527163016712
76.3488863355131
77.0046933101859
77.6318311224656
78.1946147453443
78.6682846203048
79.0422852283876
79.3061086144046
79.4698451069134
79.5626659890548
79.5936821989346
79.603331752069
79.6375260561372
79.755603674958
79.9805001074518
80.299233866039
80.7195678109345
81.2179656685604
81.8007213986632
82.4116290576531
82.7581820870121
82.1664937633934
80.3897261640876
78.241014632721
76.3421322743007
74.560415936317
73.0801509666247
72.5707444484647
73.2973185201739
74.7015416862284
76.1297026048184
77.3403064673793
78.3314490652575
79.1483788418121
79.7990099294235
80.3474792339695
80.8461773268832
81.299762331936
81.691185011086
81.9745033326418
82.1714518366815
82.3091789066844
82.4324697050807
82.5995908448456
82.7720235816363
82.8552526792602
82.779043240505
82.4876608944915
82.0364055013506
81.4801842815115
80.9601877188958
80.6209459495479
80.5483524682192
80.7324409607416
81.079059247185
81.4882187129271
81.8951655530657
82.3147271336978
82.7353381631118
83.0916358918037
83.4008839739002
83.714279493261
84.0167124066111
84.2828781433784
84.5012461085203
84.7163911522234
84.9184439467071
85.0810529091864
85.2371890850427
85.3985002615689
85.5821579409471
85.7375043297981
85.8717007858065
85.9977035315317
86.1296657621166
86.2701069235069
86.4402040763846
86.6171667002593
86.7828159712675
86.944806954127
87.0268758648676
87.0885731732259
87.1358630412364
87.1401405685735
87.1211530395377
87.0361376242059
86.8238959084198
86.6012748251608
86.4282304042638
86.2800894617231
86.2056641770241
86.2075632620015
86.3024204832795
86.466220134953
86.6449171214663
86.746431859641
86.7667248152813
86.6936078573467
86.4202386407791
85.8972800210501
85.1886930201367
84.2298542320227
82.8571662148985
80.8073828450181
78.6945221290368
78.2434200010457
79.4366318716647
80.8303421684191
81.8553688491355
82.5681426049364
83.0146129912195
83.2421103486586
83.3241015070067
83.3213485403364
83.242256972858
83.0517409686993
82.7343270889274
82.3998043743852
82.1891604168085
82.1906761247183
82.4140343721443
82.762771489806
83.1812367791347
83.6111944453957
83.9746201342646
84.3220201898856
84.6552659754883
85.0159870104964
85.3574392188455
85.600828420738
85.8356404673946
86.0863827093827
86.2398047605347
86.3672755277887
86.5184891286961
86.5920946484133
86.6735272235943
86.8513776871837
86.9910685250655
87.0568177726943
87.1372661466703
87.2126654273053
87.3668813684311
87.498906926339
87.373244188953
86.8004789217322
85.9697635576951
85.522292578951
85.7264480929639
86.2802360233696
86.8344420809448
87.3403449820929
87.7535567043716
88.0862088872598
88.4772319568079
88.8122779741953
89.1971533182388
89.5951067895144
89.8294878988386
90.1322604008791
90.5046960880128
90.875443913677
91.3085169495483
91.7028205545199
91.9895901813967
92.2149199599511
92.5219572410106
92.8646030439055
93.1018691730613
93.3882308615078
93.7442835240412
93.9828333483058
93.9847956560089
93.6941884637697
92.8939623745579
91.325385387176
88.9342792101743
85.9982054274579
82.9475636195451
79.9928086647198
76.9424484906352
73.7810792458272
70.619320952858
67.8814020216893
66.2813111895381
65.7855896347487
66.1756680066164
66.8810733762595
67.8079408077263
69.0074584614436
70.0870974649404
70.982939927795
71.7798280995773
72.4608059806729
73.1174533283788
73.7168415886418
74.4278991179019
75.316779014493
76.309272273189
77.082602951941
77.6783746410425
78.3391073020865
78.8778490907694
79.3116307986368
79.7879665316118
80.04197194435
80.0044106467245
80.0368975565284
80.2681435317861
80.6767034130165
81.1269216798481
81.5810661755769
81.6411099591592
81.781198377998
82.5455750330192
82.5593008008618
82.6902960794795
82.8534985282771
82.9296973242743
83.2356027038767
83.5241006961228
83.5201515545533
83.6253879838722
83.4240968255342
