1798
3999.43349933624
650.420452594757
1
128
4
99.5510124690598
99.5064459584206
99.42158342009
99.4403969252734
99.4963559441812
99.533021670303
99.5682562124352
99.5550626247229
99.5630503928271
99.519065257288
99.4776075885373
99.4404060217001
99.4329773704842
99.4649076605338
99.5461416001782
99.5747536860913
99.5286713531321
99.4898771486276
99.5280589438395
99.5893322075763
99.5709485709288
99.5257489494827
99.5441276021024
99.6010406449816
99.6055787821093
99.5578126639086
99.462360454968
99.4704261779964
99.5677819236429
99.5513627985623
99.5445299202543
99.5330664232295
99.5561075479378
99.5698683450064
99.6353313752867
99.5916041588724
99.4698136813604
99.4791089043406
99.5453155918177
99.5743129815389
99.5308011078022
99.4897175024418
99.4949749560101
99.4116724538091
99.4429774597289
99.5053689293342
99.5833318225634
99.633844602932
99.6402313429671
99.6574893752461
99.6501313004
99.5859860328665
99.4073096086592
99.3949323272414
99.4569201819825
99.5611947946621
99.6109881471043
99.5537413141949
99.5567783815879
99.5000880484004
99.5764301125346
99.6043398354904
99.5659172770712
99.549557000069
99.5362645210048
99.5649632858953
99.6102039003029
99.6747898095638
99.5562791411694
99.5927452311594
99.5852504605811
99.6360769550035
99.5467464681759
99.5744899498708
99.6709878909806
99.857721758229
99.9687497964843
99.7564118851467
99.4580316724729
99.3775864234701
99.5002807153792
99.5666556039033
99.6422077717812
99.7050274527953
99.6796158076151
99.6194586729904
99.5992613383137
99.5077214765348
99.4732818588386
99.5091183531851
99.6207699439812
99.5636771160136
99.621716111615
99.7458426493913
99.6978291697422
99.7069083155487
99.6138810422315
99.4532355351039
99.5278057253169
99.5336391750954
99.6349435837756
99.7152968690559
99.6919214614309
99.7583389864199
99.7164354343748
99.6255124012402
99.5660405714866
99.4808923335245
99.5865583862845
99.5891025377364
99.5412457946437
99.5440139845534
99.6118992913536
99.5858200111695
99.5776283601832
99.6357767363147
99.6156930966175
99.553169956595
99.5412081146794
99.5508385472923
99.6956741257902
99.6848773917943
99.6251280290942
99.5251558145285
99.4459638717922
99.576195356366
99.6292469624526
99.6468600103871
99.6647847983979
99.6289970285003
99.6481177545132
99.6566533738945
99.7874261801624
99.6865142381601
99.7651350620117
99.6252729244106
99.6192180764262
99.4791775026204
99.6500053871444
99.7992228415718
99.8867417350611
99.8273170945791
99.542059399536
99.5193738626106
99.6315539768929
99.6169381385963
99.6323705763982
99.6660616214322
99.6284955391273
99.5887467605065
99.6469973375156
99.7463179705875
99.8031653375924
99.7865553828582
99.6687521985766
99.5879744119459
99.5735018274373
99.5845198371445
99.6357915329695
99.6445480786882
99.6411754695713
99.6162161827345
99.6476332103334
99.6636057559613
99.7706438742648
99.7418620681436
99.4824518396268
99.3587858221348
99.5229696885772
99.6489958319098
99.6148191197793
99.713453126605
99.5856015660207
99.537593516207
99.4120054190464
99.2589440761117
99.2981214848216
99.2596917589107
99.2391731763321
99.3318892423882
99.3185083341175
99.3300431698673
99.3385495120899
99.2615756689759
99.2099495036061
99.2320469400044
99.4328171805788
99.2906661272052
99.0267612212215
98.9945396887188
98.9594495415664
98.9592344924809
99.0448521070447
99.0757335376271
98.9851830629555
98.9873089058326
99.132186282102
99.0021058796012
98.9601128594434
98.9246729416531
98.8879823091508
98.8405584732196
98.9297797672731
98.9948432261443
98.9639980434964
98.9219502412964
98.8967807879026
98.8623711312238
98.8488212002318
98.9838523953351
98.9900064834201
98.9666789938084
99.0559733571361
99.1001807649555
99.0002804357933
98.8701859571132
98.8248086066943
98.8888818180363
99.0606959553585
99.1510029897458
99.0550005409124
98.8068374022141
98.7644238108409
98.7922270317082
98.9313023765944
98.9647420296652
98.9102401204646
98.9177959163989
98.8678835527141
98.7742191226504
98.8047773547549
98.8074170554499
98.678652018792
98.681474730846
98.7999808509433
98.7777367529778
98.7192985854168
98.6483908996024
98.6333994670842
98.6214280121565
98.5372454310837
98.4363279632075
98.4117364270897
98.3844937285641
98.3636789628148
98.4198592439876
98.5646749414353
98.6239174689105
98.611008270227
98.6633091578111
98.7286132389676
98.6170555861795
98.5382650338454
98.4973770613604
98.4793985602252
98.3649854488146
98.3588969675972
98.473897263096
98.4996561874787
98.4880524705844
98.5970713470883
98.5958170197474
98.6339819476231
98.7296515553726
98.652249401073
98.5843272495773
98.5971106762902
98.5531906617126
98.6712373983705
98.5809126865299
98.4373268935206
98.493214561943
98.5556129137748
98.6033936845569
98.6901344933953
98.7187067521142
98.7465447526469
98.5967831693566
98.5873692037643
98.6485182954242
98.7459825934474
98.7636913319158
98.6121001231535
98.5193692478219
98.5426835839054
98.6710432520704
98.7262964637039
98.7019687654346
98.6191574859096
98.6320843709599
98.5782706480287
98.4447142861736
98.4843192780818
98.4050159655122
98.3898607553188
98.3807947850671
98.4509107123691
98.3770106526866
98.1720225949989
97.966535252172
97.8707726111311
97.8951287577442
98.0732969763424
98.1755025183984
98.1899099638811
98.147130983212
98.0552852571212
97.9743183275779
97.9521411732737
97.9929853872779
98.0141530720269
97.9309915683753
97.8636504586308
97.8623983266773
97.9995891497154
98.0447393738538
98.1410573367013
98.1469638334835
98.1221653441184
98.0376131502661
98.0972146073758
98.2427646812261
98.2777213052811
98.2285378787154
98.3008575760744
98.3189526772495
98.3112844837345
98.3734831144372
98.4851843705791
98.5003763677194
98.4396730434583
98.3564201822245
98.3488139185351
98.3810588309726
98.45087248461
98.4308162944526
98.450330313625
98.4101192220853
98.4000680621835
98.5257431535802
98.5991889850893
98.5886385396916
98.612856619461
98.5749319232821
98.5577171025071
98.515454315856
98.5612641649355
98.6034457332406
98.6275165010237
98.6196780041219
98.485264105
98.4015196506965
98.4745657698668
98.5051401873303
98.5127450773605
98.4937880224344
98.5115002147451
98.583763760195
98.6357997188409
98.57848709585
98.5989867945726
98.5993055124773
98.6503651959238
98.640067594513
98.5441760917353
98.4757224125669
98.5423474251019
98.6541471169434
98.6946884013898
98.5946297957041
98.5836721055605
98.602780526017
98.6656881788527
98.6977800625112
98.6831728506253
98.6706411560806
98.7272178765562
98.6903628510899
98.7027054987472
98.6557384922671
98.6387354526503
98.7198112660404
98.7452491031439
98.7842332579994
98.738846620121
98.6796233316149
98.7570340635195
98.7892011386189
98.788691737439
98.8383066271763
98.7306318292671
98.6603728597968
98.7469894845728
98.7438830287109
98.7629505353829
98.7912353186933
98.8210870962936
98.843254708814
98.8789591796879
98.8438005674928
98.7530923975726
98.7430713864512
98.828345578644
98.8752471569101
98.9346065558218
98.9927871867173
98.9162730932488
98.7926215488464
98.7855777897743
98.8440966662825
98.9356888273771
98.9504136534227
98.8872925781194
98.8668078412902
98.8967354471996
98.8513097087903
98.8420906508336
98.8712814192906
98.9034112115552
98.9286004917716
98.9682879742379
98.9035097718457
98.8915742048837
98.9619903513451
98.9483521684942
98.9015720960259
98.9444180000832
98.9970496797303
98.9723375021318
98.8963543347979
98.8765998941032
98.9687478699999
98.9900999282509
98.9005947217223
98.8733859379962
98.8902419340839
98.9444343059221
99.0255691126104
99.0150068088519
98.9170351807411
98.9206710617464
98.9773940415834
99.0286169095094
99.0906960877912
99.1332948189992
99.1144374939022
99.1035590070702
99.1076159692485
99.1178940576237
99.1245205523924
99.1235041562067
99.0939591803509
99.1078104289791
99.0957709622699
99.0759200719908
99.065760647559
99.0123436227112
98.9818415160509
99.0154656289458
99.1027949661418
99.0961830802397
99.0106314393236
99.0350602045597
99.065677681619
99.0761381230962
99.1000263405175
99.0700843328989
98.9915562227159
98.9643185118929
99.0007166957179
99.03876234382
99.0660148014237
99.0696545128665
98.9962767739458
99.0492549014317
99.0485862990333
98.976396993345
98.905990746314
98.8690809644512
98.8478961134427
98.8192226414595
98.8175156891176
98.8327809695251
98.8061041087867
98.8414504476021
98.8590731318089
98.8750873346407
98.9008421316262
98.883199963611
98.8372202626775
98.7774068773585
98.7009898274509
98.6238143572059
98.5542185847977
98.5834071078558
98.6122304562867
98.5937090531175
98.5959611537624
98.6084479859583
98.5785371444782
98.5862232972845
98.5999503818394
98.5795892747109
98.6042773002804
98.6564292184642
98.6810187392308
98.6666441209669
98.5964552044816
98.5724248843084
98.6281030626461
98.7199222395986
98.8362957074978
98.9466778301803
99.0222095351274
99.1301966507374
99.1476668497218
99.1703817641561
99.2096675039327
99.2281841067983
99.1659125984386
99.0965974118466
99.052281060032
99.0994064426866
99.088908091819
99.0581873288466
99.0255060464357
98.9396454757545
98.887377827993
98.8741967649167
98.8127972976517
98.7681500693613
98.6751971691828
98.5903810394096
98.539709563513
98.4505209340658
98.3274257508591
98.2481696958427
98.1912944778111
98.1758714314003
98.0613103187014
97.9242868361268
97.7813528803738
97.6511348629421
97.5742440297687
97.4597063904647
97.3036697186855
97.1182917108038
96.8634389985709
96.7021608346088
96.4976733797471
96.2434631928778
96.015008516267
95.7570729483631
95.4483333980373
95.1451889785952
94.7964283863298
94.5020945783474
94.2694793812182
93.9922823649623
93.713516119218
93.4528052577021
93.1728562140504
92.9619148487701
92.7877773934648
92.5901185796681
92.3733186308597
92.219757045077
92.0317491521822
91.7600440766071
91.5179187767451
91.3611869242178
91.2024761597458
91.0123154725091
90.7971880938515
90.624173101403
90.4535968308031
90.2764923490034
90.1709673512317
90.1947015337787
90.3702459082308
90.7070781708115
91.1094273662662
91.5822699121414
92.0952059427484
92.5571060600964
92.9533466368095
93.2171080774644
93.423649626839
93.6383356636382
93.7784689226269
93.8247907963191
93.8491314675199
93.9235233382545
94.0030737938462
94.0664386638635
94.1513417595866
94.3314363208604
94.5375628156565
94.7458332869868
94.9648703880888
95.1842491869286
95.3796311143086
95.5077125085596
95.5574501820353
95.5968142905787
95.5249022686165
95.3980301842075
95.3016599866616
95.131345191829
94.8568862981747
94.5508737102071
94.2372164456218
93.9171905076159
93.593380704679
93.3651795604737
93.2496370916965
93.3486302425024
93.6837363397614
94.1873402111589
94.8150998690874
95.4874479753113
96.0680949141718
96.5467426542821
96.9182054887148
97.2271152596986
97.469496674036
97.6998590784927
97.8666038401001
97.9964007714075
98.1187051941124
98.1863752169042
98.2605171797491
98.327323754155
98.3600926869381
98.4332813967078
98.5007163511651
98.4622882120523
98.4218566828795
98.4598189026462
98.5313375346668
98.6202170868964
98.6217275750991
98.604740207613
98.661560393539
98.7255150378467
98.7436298096488
98.7708052222855
98.8258015931382
98.8717964063945
98.870701124093
98.8685359748055
98.8727235082107
98.8864609770493
98.9266576546513
98.9806726856473
98.964154315323
98.9461379739803
98.9764151427611
99.0267031128388
99.0288113077028
98.9773072788257
98.9643530611658
99.0025061827743
98.9996171276861
98.9859216056044
99.0041811388539
99.0146389869554
98.9963677166937
99.0313514635457
99.0319411257602
99.0136010030884
99.0714819884922
99.1180214441254
99.0988801118723
99.0895569701149
99.0946865441512
99.1053201373177
99.0915337408927
99.0905323727529
99.0974425292791
99.1325944905551
99.1407414318039
99.1334909395942
99.150872701193
99.183007011969
99.1952652568229
99.20108809989
99.2092717770369
99.2128313044487
99.2147477754216
99.2075172241316
99.2008776913697
99.2110574756942
99.2077346443806
99.249808609048
99.2438967550353
99.2189679428014
99.2226595178946
99.2617960608528
99.2583659281304
99.2210057280697
99.239221943124
99.2880679980835
99.2936472843291
99.2869661333822
99.2966913126218
99.2696721880823
99.2303239867642
99.2424320033113
99.2672530700982
99.2826237205611
99.2283953161511
99.2194711731
99.268234432205
99.295413570388
99.2796552498711
99.2487427486481
99.2422816252648
99.2542935446452
99.2366975009183
99.2491532354045
99.2544351105834
99.2444354231542
99.2681887996073
99.2984293267785
99.2779533345763
99.3105199267636
99.3263413199366
99.3358104973959
99.32547459751
99.2995554451878
99.3139672939312
99.3325398269694
99.3457066759797
99.3476586497754
99.3108213694497
99.2962016788227
99.3190722368286
99.3432405163716
99.3801165831379
99.4126544863312
99.3916147941049
99.3951115531641
99.4486883551912
99.4825795229725
99.4794742774964
99.5028349726109
99.5166301416929
99.5388976669775
99.5706526872508
99.5668976877979
99.5653153553964
99.6099920674908
99.6141749185997
99.5868789303227
99.5404246278431
99.58440649361
99.62571290985
99.5837947285852
99.5667608604755
99.6051283416406
99.6744394645864
99.6502327879827
99.5913841210881
99.6673322395031
99.7384645065641
99.6890937071183
99.650979777693
99.6548713839069
99.6364759716642
99.621753838737
99.5985797718707
99.6166185069672
99.6476867067439
99.6176773309838
99.5801047557752
99.6173306710773
99.6223338650575
99.5915754686485
99.5959834559
99.6294821548157
99.6986688307089
99.7109330494873
99.6577359490106
99.631038516948
99.6558715036464
99.6686501082225
99.6213878992225
99.6071634297753
99.607735281372
99.5839523910406
99.6249376254411
99.7279004555329
99.7432273581925
99.6758037045095
99.6281755633281
99.6170874032624
99.6310821052358
99.6469544315298
99.6607329033686
99.6744115214072
99.6609771653645
99.6760261329713
99.6997956147763
99.7768368668706
99.8475812464397
99.8385199037632
99.8097314508374
99.7857134820328
99.7716093467165
99.804690334235
99.784434862776
99.7236411212194
99.7444680664471
99.7739621194878
99.7443735197451
99.7476436016775
99.7866945842362
99.7548854671547
99.782968817821
99.8152971377292
99.80648905332
99.8480007384193
99.8165281255968
99.7442398630305
99.6578635942086
99.7218198134617
99.8415290078847
99.7974136123452
99.7950923985551
99.8317228709913
99.8031029294877
99.7669349289978
99.7935850995618
99.8494844173277
99.8362307521646
99.8128459799286
99.7808800803027
99.7871868406434
99.7775886292709
99.7352207356537
99.7741874395041
99.8541995369589
99.8438682927959
99.7970783771426
99.7242035806319
99.718932717376
99.7479218717539
99.7423597740342
99.706758203322
99.7006992464659
99.6726949672519
99.591606199619
99.581475024585
99.5967973890646
99.6212152216616
99.6035474373933
99.5523210955951
99.5757221203737
99.5524423947276
99.5236113586982
99.5621705776958
99.5394057100756
99.5162535199958
99.4745386179171
99.4372671603048
99.4550849681138
99.4503193260552
99.4316437773193
99.4461308426411
99.4377170241239
99.4149366001314
99.4041082656274
99.440484039493
99.4025997193923
99.3163517772321
99.3137161572342
99.2974281923408
99.2782727534336
99.304210819373
99.2571084200338
99.2054923975521
99.1560190458002
99.1235035683528
99.1799424423091
99.3174042729992
99.4566200424316
99.464826135168
99.3794975876575
99.3526859231645
99.3689848003507
99.3473222814971
99.3234971033859
99.356482687716
99.3704037435744
99.30009385903
99.3446498697241
99.3335286033439
99.211026091882
99.2202681716469
99.2836293135764
99.2931600882644
99.3723133069904
99.4819946913658
99.5578639583665
99.5734124535647
99.5585974670169
99.5894795212967
99.6694891244852
99.7182581036389
99.6840904278113
99.6710436183911
99.6998748990375
99.7119735822681
99.7918721020451
99.8480431895021
99.7709869254883
99.7248477110616
99.7406229894381
99.7293672927874
99.7670571527293
99.8758365211153
99.9473910108557
99.9912695738648
100.10875311858
100.162932046303
100.154377517656
100.168168302257
100.245951043825
100.300561791716
100.336274467058
100.397807613255
100.452245045694
100.554472210646
100.533188151902
100.500185246059
100.56574095181
100.562451503785
100.500422941292
100.472378811246
100.451163548853
100.357370711958
100.426306044175
100.628207556681
100.655655406921
100.584177029755
100.606433560113
100.685974676127
100.660488377861
100.633616778954
100.607202383169
100.614822688924
100.812224005502
100.916153816288
100.791535518078
100.822632820441
100.976639958475
100.969503632922
100.837187754805
100.972344962457
101.184637258631
101.144260366484
101.164857709465
101.089200811533
100.807120485878
100.759664260664
100.915935562605
100.908348929068
101.024318533463
101.121143749208
101.083365144942
101.164447278566
101.48330061715
101.508074589934
101.164898248535
101.114518440742
101.214906802118
101.259861448443
101.274927176503
101.2056112113
101.554043358848
101.818833439666
101.787240244531
101.75880052305
101.670027342583
101.689470274546
101.699406229646
101.760880135351
101.674790490853
101.31332576715
101.19115807001
101.153463665055
100.845075383624
100.732558110004
100.972246453904
101.034009900267
100.805919106366
100.608442565214
100.6129503329
100.57955629787
100.409524017514
100.296419158541
100.240739122096
100.357646650273
100.3453338429
100.13669483525
100.086845632965
100.121566049556
100.10368694813
100.201225809371
100.229880981572
100.129324881126
100.160713651582
100.178249744688
100.124868644195
100.180751901097
100.185147386303
100.141274078203
100.097788512734
100.157472399086
100.244728983382
100.281686499956
100.274186728685
100.232927603447
100.249305154885
100.264560851154
100.23038111994
100.183512339219
100.104148638213
100.133436578179
100.199055754966
100.244773831829
100.258609066443
100.313235460857
100.356572271254
100.45152570407
100.508241017177
100.525745354207
100.562604558023
100.479271927139
100.526103366952
100.627682187338
100.619111917643
100.856359041454
100.931144700148
100.856435609467
100.954376034587
101.068043710414
101.28909571603
101.470579037708
101.48720753298
101.585065029889
101.609138588355
101.601923355608
101.591142269597
101.402199760982
101.044011781946
101.029452704944
101.047278629609
100.921478052867
101.001849021212
100.946565033225
100.699465822513
100.829673656561
101.261839570216
101.368319137234
101.233757103282
101.251291155346
101.13151824709
100.958873313514
100.846107343326
100.7951148655
100.557360329313
100.463333453671
100.579392212073
100.751607408491
100.891348065587
100.955404218305
100.782489746553
100.507444240641
100.584516634702
100.988402704537
101.201338180144
100.865473637033
100.517416080652
100.928284232279
101.315826224964
101.043838481913
100.688225533875
100.76101026797
100.615320321314
100.239683246431
100.304996538672
100.461550822196
100.205964673941
100.126270277031
100.148566541581
99.9635087304453
99.801628819148
99.7908402822727
99.8642500646437
99.9784658461922
99.9470062053997
99.9203381610569
99.7614179117218
99.677876329327
99.6957068374773
99.7162303648643
99.7593776767182
99.8017765869378
99.7464829341732
99.7995335130412
99.8956970255325
99.9961408479445
99.8969725793313
99.8453026319863
99.9285626027319
99.8888102028277
99.8547579042499
99.8970640570026
99.9169493295124
99.9456181155019
99.9771106819957
99.9755468591798
99.8736473315759
99.8290955818794
99.8337846785853
99.8689915462322
99.9193928800522
99.9393554906931
99.8958261775183
99.9361788655464
99.8370435395494
99.7530974506641
99.8175787441424
99.9222257210004
99.9540970585956
99.9133713896737
99.8551015754148
99.8764587918216
99.84958376894
99.9250346627719
100.057918294417
99.9573614939273
99.7869389931327
99.8017653619619
99.7813851225088
99.7580343686841
99.7017268031461
99.6738301011842
99.673897265567
99.6887305105669
99.6256000730009
99.6439867824927
99.589866821574
99.6144012008733
99.5295422404126
99.3679363894455
99.2725260305024
99.1811720736179
99.134344985671
99.0874568788696
98.9987542395819
99.016246311486
98.9134531867446
98.8805742594261
98.8234847120963
98.727002074975
98.738488429139
98.7570224336109
98.8178096003947
98.8044317345465
98.7121361527529
98.6693728233525
98.6832979859468
98.6883330838858
98.6563207335595
98.6574810509885
98.6701258506117
98.6883913696951
98.6781811698321
98.6228100358503
98.5436398771997
98.5626334301591
98.4674940934869
98.3259210676109
98.2695084881512
98.256671864741
98.1798570884442
98.1338410022026
98.1279042202087
98.0456626030775
97.9977721959023
97.906920540014
97.8797772847351
97.6848811314486
97.636885604011
97.4366878680783
97.2401926332891
97.1884185759401
97.0577141876338
96.8172569869369
96.6636302392655
96.3126694610035
95.8754432612663
95.5593666608878
94.9891446101165
94.1350939345901
92.979357680262
91.5608530768648
89.6282177620735
87.2939442070187
84.2404286446503
80.2633622455316
77.1416522132637
73.5438344479493
68.8817603012523
65.0632756937469
61.4372755834125
58.1190428642624
55.0660143885636
52.0573224688115
49.3130371888858
47.1323485428031
45.0550486627833
43.2120134283655
41.7864133183833
41.0273734948728
41.0066350529873
41.6650899970262
43.2212703388653
46.0281000438035
48.1241378879009
50.6148116543284
55.820125879706
58.8565486881369
62.1472694331743
65.9428087393478
67.5064280665527
68.9469677319312
70.4250637427188
70.7277616047471
72.0126165511023
75.4102925136548
76.680430872447
76.8616611587014
76.8947844509101
77.8549161928219
79.4709372045134
79.883039368573
80.5905945894887
82.257266334371
83.0307788002931
83.1437358417518
84.0139192628636
85.3158762403916
85.9887979107055
85.960226962199
85.1209864314604
86.2139666950764
88.8428105970721
89.0388005137982
88.4881479284245
89.3525248655639
90.4165256329672
90.7146940372416
90.745559659614
90.7420316042344
90.8800535586869
91.9616249603882
92.6966928811504
92.7025357643095
92.6342602152504
92.8289862436061
93.0475396216675
93.2297441996614
93.5836206364779
93.6080864434077
93.112686379679
92.8008315377549
92.9513398639915
92.9461881942602
93.1014869083946
93.5069632413669
94.0038922644838
94.3911835508032
94.7309284375901
95.0386067646744
95.3246682243415
95.5184005046871
95.6665934817632
95.7681693409812
95.7922842101475
95.7871952517537
95.7327883139177
95.4776073720829
94.8427599749767
93.6420413746298
92.1066429092778
90.9176226837601
90.6085523920603
91.7631052562275
92.9013687893395
93.5957639456907
94.3173419022679
95.1066234278499
95.5412297475339
95.8457805967581
96.0031039107901
95.783532615343
95.9814015000912
96.5290050496251
96.6354275882461
96.7873249787951
96.8541814349389
97.009262165106
97.1941060097988
97.2359478629887
97.3140759260029
97.2755029229386
97.1408651061579
97.2550857696198
97.3606772413892
97.1122666850422
97.0073740918357
96.9561109440427
96.8987976927962
96.8252286547868
96.9063281111624
96.9385309882422
96.9336932505616
97.1257373381035
97.0386424331021
97.0293215026629
96.8925443466053
96.434934580869
95.7317139402391
93.9109117451852
91.0754458285431
90.4971130879242
91.6474028770031
93.4606403832142
95.0998230350672
96.2812614069965
97.0269350759125
97.4102462212333
97.4498937491867
97.4536654215935
97.3702517458856
97.2231402268551
97.0220466940636
96.6293391297485
96.1763319049187
95.6502132780452
95.0243193093085
94.4675992842146
93.749785532622
93.1559304357533
92.4829579342587
91.781512230686
90.9418941483191
90.2323452158103
89.5358865558803
88.8531226421688
87.8955759771366
86.8789965210463
85.8993356078181
85.1018782744488
84.9276211689939
85.3837190737368
86.3531620856057
87.2671774562694
88.0595549360835
88.7154798365501
89.2478678820613
90.0293986008854
91.3551833837812
92.3538914043397
93.1320446370802
93.818071111261
94.3061170226402
94.5576122509684
94.5757200607565
94.5251629731104
94.1008025190331
93.0512357255909
91.2961824325661
88.2571314341696
83.6302954969428
78.1456751229504
74.2066758024687
73.4295190565368
75.7882552799001
79.3306404192275
82.1154761202248
84.2137306630942
85.8812186016575
86.8232853637503
87.4559112711734
87.8954821703173
88.1101196352815
88.3313258776098
88.6936726403899
89.0164244593009
89.0604482143102
88.859048170968
88.2579808545076
87.451841534604
86.6015951876964
85.8737478598327
85.4903005529474
85.513810318984
86.2460888614161
87.628925440101
89.2967544949561
90.97921127783
92.2143539639263
92.9021608901853
93.3036419319024
93.540413067145
93.6465398114317
93.618741113569
93.4410044377884
93.1293168928752
92.6174165748281
91.8977651851613
91.1453047022556
90.573191835272
90.4611969031682
90.8692365557404
91.6046832031932
92.2944638581557
92.6703418264043
92.6563015985968
92.3045579771199
91.6764751305284
90.8941971421609
90.0778580035588
89.242260527949
88.4205021696609
87.6838543299169
87.0293794814796
86.3513046688592
85.5019056693303
84.4487859979689
83.2939905658218
82.1314119061692
80.932783028393
79.454200930624
77.4698766366018
75.078076454312
72.5154267547256
70.0625935916442
67.9217385662714
66.0665584260697
64.3272152593357
62.5662641406002
60.6996782424567
58.7740607194917
56.8376732101011
54.9220803698215
53.0555527110382
51.2843067866967
49.5631522703823
47.8288905970637
46.0477308811316
44.2126970444502
42.3790277716931
40.700364818055
39.3281366503736
38.4183812990165
37.9521848985654
37.7449216974114
37.5016686052057
37.0141497506685
36.1838255926683
35.0860310825259
33.8540018726543
32.5575927248714
31.2809270853507
30.1908572232855
29.3953191903493
29.0237134367697
29.1439287563344
29.8080449415421
31.0382348689073
32.8329329558162
35.0963823361929
37.7046155829213
40.4237950850424
43.0119563325154
45.428633497006
47.8611547640464
50.4083411152199
52.9877328705387
55.4911650776152
57.890786904534
60.1429544333558
62.2711193919129
64.2939027604329
66.1967471940156
67.9984572668901
69.741609252735
71.4311792511604
73.0552936138439
74.6040052232071
76.1505733245084
77.6730523100201
79.0821271275081
80.3060431431355
81.2446019333162
81.7719944531584
81.8098520308353
81.3703074738638
80.6002835128958
79.7768976603099
79.2458386002273
79.3629505630161
80.3537681566344
82.0062578379145
83.7355937993354
85.0838159975776
85.9745917247162
86.4949526966065
86.6639802525636
86.4803554916064
86.01568860858
85.3430888912896
84.5249862346396
83.5763812490994
82.4624397899003
81.0986822370271
79.4422665130822
77.5992861674856
75.7051793723141
73.8265138072468
71.994962386892
70.1736569908322
68.290214003838
66.2750646478555
64.0491495095947
61.4916193623827
58.5843034316988
55.4640044892216
52.3845761642678
49.6324718394247
47.5289798590504
46.3181764187476
46.1860176101708
47.0233626023096
48.0546980753664
48.1038470441564
46.5802530998322
43.8745127237181
40.7890789745657
37.876672733864
35.3579182062402
33.2916944618344
31.7445876452422
30.7424552867124
30.2324139334502
30.1191718936865
30.2922418581575
30.5957474850085
30.9681452007555
31.4873334624714
32.3649873796608
33.804439237696
35.870900194579
38.3716607219382
41.0485372755222
43.6767561878309
46.1433824732023
48.439906896621
50.6450589786619
52.7446265039988
54.7066782101026
56.5062146983941
58.1098111190891
59.4018771788739
60.2920857659561
60.7475202677012
60.7931917595288
60.5021980704207
60.0033114277484
59.4658607474144
59.0865488858389
59.0155455057582
59.3541306392374
60.0394933273278
60.9197640716661
61.8745693753714
62.8621180805325
63.8771482021875
64.9247149338497
65.8482102657287
65.9444341467063
63.6969447512423
57.8155649918288
49.3454371382261
41.8632823990512
38.8118948832901
40.9925019723739
45.9132454180742
50.7294027422209
54.6652277583698
57.8591741028046
60.4220479891342
62.5254768455727
64.3172294749259
65.8489982231833
67.1310728830414
68.1812577481232
68.970282459967
69.5302551405575
69.8753039512488
70.0495368970864
70.1636091742803
70.2671554906152
70.2988417689608
70.1858599296345
69.8473988204757
69.2860436307408
68.5892116318784
67.9336042757599
67.4645880261067
67.2180403167366
67.1738422212626
67.2681693277147
67.3233896534067
67.116736126173
66.5408217115723
65.8913261497491
65.658943500204
66.000136153377
66.6024239789941
67.2115480039326
67.8719235672365
68.7130983419782
69.7741215173369
70.9640685868914
72.1091584017785
73.1504445860538
74.0686564308372
74.8176517113756
75.4208617104134
75.9754918261005
76.4735706579975
76.9265020146191
77.3844646507468
77.8722792901704
78.3817391127987
78.9098670778505
79.4201636177754
79.8438903025726
80.1580849143821
80.3675667444878
80.4078135514577
80.2049579400575
79.6342093324728
78.6873414692669
77.5266607762946
76.4212357572728
75.6450870438036
75.2153545143181
75.0697824720988
75.1056634189764
75.1510964351168
75.1822949725049
75.2367083667664
75.1998191975693
74.8007990844716
73.8531053706392
72.1029992978838
69.3319746611366
65.8075732622503
62.1420376892632
59.1352991322161
57.8772443363392
58.8738754999254
61.4543563101458
64.5006596659891
67.3331379964677
69.611650871565
71.2564832097182
72.3915729831314
73.1145064051358
73.5415982381677
73.7527313338939
73.8021118637789
73.7826452042019
73.7404161969526
73.6854702463506
73.7128243223233
73.8751545973008
74.1705572722723
74.5718151818559
75.0358958617811
75.5621649457025
76.1184868829534
76.6902933960432
77.2082821959824
77.664771715617
78.0330273586098
78.3275966843583
78.5919536062394
78.7722861891914
78.8942117070571
79.0484756723229
79.134245841166
79.1451609191996
79.127963549192
79.1610041643619
79.2229149638659
79.3410736376949
79.6079865659277
80.0830036500413
80.3211314537193
79.1874725644357
76.582039307204
74.4897167979786
74.5866846094093
76.346603730037
78.518429196665
80.550725305598
82.3312650059029
83.7806513381026
84.8762471381629
85.6341570578971
86.1405674065429
86.6375766531038
87.200851350943
87.8728173364522
88.6553571827198
89.5579734801515
90.3911162951929
91.0885943054206
91.6878171942529
92.2404787847461
92.7426358555825
93.1344443840337
93.3513274963988
93.477981038575
93.4566155751646
93.0269389585634
92.3224151988837
91.3443269876238
89.4589647144661
85.9056817412147
79.9179312343891
71.6285449149349
62.3072619844498
53.2948286166107
45.0317272906036
37.1625127668198
29.5476002988804
23.0931815327128
19.215592535841
18.9223356697166
21.5340019538736
26.3630949023378
32.2791583009282
38.1166259785551
42.7797221306836
46.1125552055279
48.5167811089326
50.4661552949777
52.1628601810868
54.0059565074737
55.9484133472424
58.0906799757717
60.3090485978906
62.4874073390161
64.2639749142305
65.7910644516272
67.0341354274193
67.9743742328727
68.8967251289554
69.317797358034
69.5109067918189
69.8774191002856
70.0970231185648
70.5771982171407
71.3426897769512
72.3030591990657
73.1902914923511
73.3214236043712
73.0808703070001
75.1669095902653
75.8488671829021
75.4939148578291
76.0347152190627
76.7261297878725
76.9004332403165
76.7913321350655
77.5581228560527
77.9267420332534
77.9862698361973
