1798
3999.43349933624
650.420452594757
1
128
4
106.119701240105
106.224739937897
106.062528875758
105.966836640882
106.024067515798
105.992768452645
105.966975032351
105.926393205958
105.866867874514
105.986715812932
106.136232254571
106.088492647021
105.828233056145
105.83989876897
105.956815983843
106.086061636434
106.05641530171
105.959977788443
105.916575007477
105.9061006283
105.769932106772
105.816636128052
105.953791791333
105.938137114412
105.853138705566
105.740224577895
105.793929720555
105.922350476675
105.68145421467
105.777394324702
105.86326057607
105.675861684488
105.710409706977
105.711185713451
105.630472270377
105.714575096681
105.712320230532
105.73197611054
105.591333938528
105.794105931162
105.652498401645
105.542051819334
105.319681373017
105.402643488547
105.720685264742
105.836441996502
105.976553649555
105.868383810723
105.582098793196
105.233707955679
105.466504561175
105.575636443648
105.430896791355
105.726770771025
105.631557334622
105.491451480756
105.388755448619
105.827929194539
105.55191636597
104.935703827016
105.644408589903
105.426251983596
105.282692491034
105.856611736655
105.619321108531
105.349095593863
105.738426228286
105.110691745101
105.311086686711
105.895210778619
105.005868536253
105.402523207357
105.201096324962
105.421482828296
105.263533331699
105.177588879182
104.540670603193
105.523154351059
105.918973612512
105.474813714484
105.469149678275
105.389480179879
105.269379018321
105.229396700665
104.666723365775
104.906390988717
105.10682585184
105.148990530878
105.051869169959
105.509000329171
105.246455570827
105.151772272331
105.560849204531
104.936814544549
104.985541609776
105.658197857354
104.603844939623
105.383119329755
105.873860557856
105.56599660716
105.636457456473
105.087846895434
105.56454256264
105.298998610567
104.533029978731
105.535109328059
105.3818676107
105.070410296961
105.505306618774
105.377115442142
105.372099059855
105.459164956545
105.583237598694
105.545324310735
105.706591471383
105.561960535579
105.251095096307
105.445711735736
105.352866724176
105.511388314071
105.499621839571
105.197433215844
105.475034269111
105.143366619146
105.213649046114
105.543850562425
105.085362460958
105.358239117376
105.406237949102
105.315076232577
104.799355546367
104.84068807818
104.813269644322
105.434868565359
104.752422118495
104.394435685665
105.882642262274
104.864348472866
104.937110596575
104.664622695833
105.127536110291
104.670463010447
104.906567490239
105.241076732893
104.965598684476
105.009045353144
104.719800704662
104.485391914786
104.942756730621
104.991875101269
105.304254102882
105.164632101054
104.961019694879
105.179731195498
105.354313625459
105.330771874244
105.430575630769
105.271721081843
105.310207681128
105.43432166021
105.258243753818
105.391606591609
105.384639899985
105.111298573693
105.059636528138
104.888993784756
105.435359164795
105.168032529339
105.385288534499
105.172031277813
105.370006889605
104.998029344504
104.761843625967
105.690425200654
104.570148907168
104.80634604811
105.215882230762
105.042249632013
105.100879739668
105.174683917611
105.187355568286
105.281920106198
105.094675452067
105.514246438101
105.115870260926
104.487967959059
104.546490724635
104.811100552218
105.311971400233
105.334146312425
105.369738429114
105.206684974118
105.048220188425
105.226405853145
105.1569015095
105.51616261707
105.012035780018
104.773581575746
105.28753675486
105.071386157211
105.38713333809
105.278187448345
105.022177628031
105.088186991257
105.048775527844
104.75642175944
105.112850393805
105.108356229755
105.154272479558
105.374044435064
105.390734281628
105.41848993547
105.469335325566
105.373531346441
105.264248581734
105.25469049886
105.51153649583
105.572402150648
105.321429949988
105.208016988035
105.336331277473
105.244697928689
105.323144684217
105.349219553394
105.512719271532
105.560311936499
105.474263545449
105.589933442217
105.702337469451
105.249661167496
104.888676479607
105.051838617108
105.23212338578
105.245091489892
105.405809470588
105.598967505013
105.749480448011
105.733222900218
105.658296334885
105.579691644966
105.487392002258
105.518298129355
105.50712054029
105.656068513482
105.837293654213
105.766824389787
105.64322705696
105.597599447031
105.531281187088
105.565145181576
105.648312440539
105.49045258416
105.338765232784
105.242201627829
105.491909351356
105.697326566568
105.672689846888
105.587331092335
105.586726547595
105.708191974588
105.636868848638
105.473529548296
105.452398295205
105.260970236599
105.245293524872
105.493831049012
105.640448962873
105.568307120539
105.455212029857
105.377056856127
105.522974842319
105.7756061618
105.713410328573
105.573581639837
105.671201743616
105.691007494076
105.514062521858
105.388329576358
105.471433169197
105.410759890772
105.452720647767
105.614642979198
105.653239792238
105.450654289118
105.419862319807
105.462042285655
105.408712181364
105.434844598406
105.592273431442
105.579977824423
105.43359466346
105.429147604949
105.499498039368
105.347678538203
105.131202212816
105.253174618701
105.493503718196
105.469666915166
105.108690739578
105.001475983273
105.387910399253
105.520400843788
105.313735475527
105.185160070303
105.364777030953
105.453259932777
105.313817872785
105.246094073076
105.337867009693
105.312442130133
105.27037250358
105.251528784899
105.261885612587
105.254729110786
105.396359935095
105.347668589826
105.247245555081
105.217990169365
105.315861688223
105.356549081357
105.373212859508
105.347356908126
105.280026751901
105.259698865012
105.264145971643
105.29407908904
105.416053952849
105.412983651199
105.311016254376
105.198550397884
105.168010830164
105.183608506311
105.190152969088
105.111672781265
104.990450174122
104.953024917811
105.101401257919
105.1143556788
105.130477607506
105.116193195798
105.04874390449
105.073609482743
105.110828628695
105.049264035097
104.950731949701
104.89142964684
104.92304667128
104.933690567736
104.856177017285
104.845706032903
105.049457962859
105.038898735376
104.846652499038
104.848717892223
105.0113122356
105.025223264548
104.928589516144
104.77240151982
104.782007606781
104.903976405409
104.936169561275
104.870572368442
104.843877469847
104.908060958174
105.002661960224
104.935234259639
104.858478883388
104.823288033836
104.781003447314
104.776460502054
104.828417387062
104.87279395436
104.88685095397
104.826699027475
104.697676523437
104.684238601502
104.844405478606
104.784451196694
104.666078751562
104.652808925024
104.782234134142
104.90329290358
104.835664851976
104.67906404372
104.676701379062
104.697945068301
104.720419902106
104.671862812602
104.650344043592
104.683513907354
104.728711438842
104.649106416538
104.59491291386
104.629661187381
104.661184535454
104.676630743602
104.676056481717
104.61286194543
104.566889413888
104.563193774439
104.679256314162
104.684150029498
104.561232908481
104.518533161706
104.541546715916
104.600844598693
104.53124172842
104.414093618195
104.483781904092
104.562244642758
104.442360085249
104.317637168146
104.434101567988
104.496841097665
104.45596945613
104.412634572305
104.470995786141
104.462483535138
104.406300007385
104.447901002102
104.460268520145
104.429856428965
104.500464116221
104.42542966078
104.330927866132
104.367654350849
104.414223126546
104.423575981558
104.406792663911
104.411183156033
104.444826031391
104.418663271058
104.407785918162
104.30910137638
104.175617630789
104.198653084196
104.334195084209
104.417595826501
104.380095461379
104.303197905071
104.267967805102
104.276909901102
104.297904703202
104.330393842007
104.400424945875
104.347401877904
104.163627867713
104.148808597368
104.303929563237
104.304406137532
104.249253560823
104.228865486196
104.245243100172
104.27748823157
104.340738846913
104.306074856342
104.216935261636
104.162428068251
104.137350738114
104.199295998247
104.263074186774
104.193397485878
104.132099799018
104.07862465796
104.071815719132
104.166007686164
104.231343271166
104.152919449458
104.071790247903
104.123151388537
104.140339233906
104.078808720799
104.042206748951
104.044473630036
104.115536266212
104.163773441924
104.172355193132
104.11665083585
104.088042216762
104.030593063234
103.927290102711
103.976591946819
104.091300615897
104.086441211124
103.996601221811
103.898579705607
103.918619206803
104.016917806543
104.0608452899
104.032629739885
104.021333629504
103.916591955722
103.866958058041
103.947467242973
103.961836635241
103.913444445027
103.92106816069
103.937093719541
103.939941436242
103.858749541213
103.813693269007
103.848674657898
103.890711261238
103.877792358279
103.874594957198
103.92328598222
103.929123971331
103.858654818934
103.928791821701
104.05555092935
104.046723233299
103.968941093679
103.923552742668
103.91519426839
103.929118436933
103.951769317952
103.901484930507
103.793310591271
103.812116377465
103.795658588091
103.731247654777
103.730401676319
103.744156007559
103.716778187958
103.720256894747
103.720773569712
103.694934466678
103.627861574519
103.51528357688
103.422372203239
103.376085053238
103.345836724497
103.368498725879
103.46704804348
103.529791135126
103.494548834763
103.517606543521
103.489854533971
103.362721211367
103.303513455196
103.302523048299
103.325836548229
103.288483665276
103.154742026144
103.048427711197
102.983399684042
102.918376762314
102.840437178712
102.726045288099
102.605916645975
102.522657378542
102.380772928075
102.176800743665
102.037632023493
102.024971456115
101.926249714655
101.786526023626
101.774379249898
101.763370664598
101.75862220955
101.810203909893
101.84524656178
101.826298987106
101.731962570869
101.558414696907
101.284152002842
100.9562875236
100.57590343776
100.212392446746
99.8325410495187
99.4161891109282
98.9774058220752
98.5802771415834
98.284791872596
98.2423042536537
98.3895385497367
98.6046764370208
99.0230684975159
99.6953396892296
100.425866759896
101.006896890213
101.478350356605
101.815131345899
101.986006806605
102.097340943186
102.037504763424
101.890615800597
101.787145377877
101.789229450345
101.77209320627
101.731401128588
101.795130821012
101.878227990554
101.976489324963
102.071373532378
102.052979428666
102.147602810136
102.330091883049
102.382204635528
102.264358027792
102.077369349329
101.968279495932
101.914744362133
101.767890898175
101.633693858045
101.51012092452
101.331046049586
101.082121513539
100.726666822663
100.386075039844
100.00509118263
99.6064299196952
99.4604203962092
99.5115763341524
99.8302760789632
100.547089857892
101.395605492173
102.159687024106
102.781490294999
103.129192017642
103.253396169574
103.258967699881
103.189659819808
103.045606957352
102.929306063277
102.823521522001
102.731340710233
102.731367792984
102.76053369365
102.746983159587
102.746814458459
102.762715076367
102.764205517419
102.693836130838
102.666065652076
102.720963037177
102.766240750839
102.761630741382
102.748027456892
102.763700772936
102.829188592892
102.843943248963
102.84012189066
102.852036471746
102.842755472254
102.833979524986
102.857065134776
102.875754226976
102.884315210625
102.840358357588
102.835105209031
102.843059082766
102.831238701074
102.838019348333
102.84915992822
102.868814963032
102.893938186915
102.896290672559
102.898649112377
102.854987890395
102.809997028981
102.830670610767
102.893888752811
102.865794218482
102.815879087671
102.85633084962
102.885400857672
102.84546363864
102.816728216585
102.818675426536
102.841799233027
102.841734929352
102.834195901469
102.857400261189
102.866297557927
102.853930845453
102.788660944316
102.721731186338
102.772426910504
102.834236222461
102.83880335554
102.840054737931
102.892399691386
102.89893369193
102.855385325343
102.795316943154
102.795596919612
102.81154600683
102.814932794429
102.823971131274
102.791393110215
102.75073532689
102.786393380808
102.817927177884
102.784406077765
102.733246494272
102.733704148261
102.78129785764
102.812123065809
102.795814900366
102.800443214056
102.750735542549
102.729958726481
102.775209144136
102.802565468509
102.744795001572
102.698902666484
102.696866789742
102.686057850271
102.69597468647
102.750341589853
102.742362536911
102.703391408968
102.730497730393
102.765055136867
102.722236786598
102.723377358679
102.757231169337
102.767775870708
102.767127672077
102.759641416239
102.771410391176
102.750875715169
102.709323143984
102.7436036344
102.763485982461
102.704613259965
102.68021944883
102.709285803092
102.717785391618
102.768278283944
102.781992139126
102.788665481513
102.804498578003
102.756753420183
102.685461583311
102.654532559068
102.732743809178
102.821494050512
102.798273698989
102.813623216556
102.785368267144
102.726359428365
102.699878725678
102.69426119283
102.74260884268
102.759217085644
102.727331353186
102.834633448576
102.910767509447
102.856406111703
102.760741038094
102.703465797214
102.79311108383
102.856054433407
102.81989033199
102.759063887988
102.704268503325
102.701899357342
102.710704998454
102.770035632362
102.731990622414
102.621994025245
102.614521029676
102.724871558328
102.776439204051
102.72483897485
102.702543159838
102.697242795719
102.667493256072
102.694109242233
102.67869962099
102.689203311712
102.667614460563
102.666148153776
102.709700716464
102.685699009285
102.655165122777
102.637848818764
102.611082132084
102.540432768376
102.502151449785
102.547427233822
102.669766151151
102.773249808694
102.684937948591
102.699210881742
102.690800700879
102.617926312399
102.576996546951
102.624000620075
102.646141803876
102.54400164492
102.469635723116
102.486254904027
102.49818246322
102.469647753268
102.407832800003
102.46425861598
102.574085218959
102.569126815484
102.521434270453
102.503945315207
102.533789620645
102.653971448108
102.62434728741
102.491757248223
102.477182111749
102.606491335169
102.642407743901
102.564600104893
102.550988461644
102.510755979371
102.44861415671
102.452961243482
102.508080056038
102.459541666345
102.377402337356
102.391252016786
102.404965394199
102.391378712498
102.406132164358
102.484409250391
102.538296281139
102.566238099912
102.547875202593
102.541055984065
102.576577453084
102.566077726274
102.491722405943
102.423870082476
102.477287526088
102.518056817686
102.506671907776
102.523033635672
102.474205097762
102.485465289065
102.568461562022
102.54152539514
102.356788574909
102.292083446766
102.372209477287
102.411340410003
102.41722794978
102.453411951736
102.415175931239
102.387959727015
102.337200513905
102.273385753798
102.336610207002
102.396545665821
102.43122929882
102.465262640503
102.432625789596
102.357890790537
102.319394883508
102.312378361733
102.296046200807
102.340037451529
102.409732167157
102.416497996874
102.32868395343
102.241783198618
102.247718865569
102.335561953947
102.379525019215
102.27091616801
102.135541978478
102.122234173607
102.097983868408
102.11791283969
102.266729702739
102.332046833716
102.174624301049
101.878047039909
102.100142637408
102.352572437259
102.184120913971
102.284083097634
102.292838386173
102.24365191951
102.085716408521
102.228176822557
102.233037905331
102.146591329919
102.051823475009
101.820703333718
101.791908627823
101.879008471513
101.955873328166
102.067123808286
102.281481405305
102.392916091162
102.192027690759
102.011523506747
102.126384861298
102.081225968035
102.133830704252
102.145179877836
102.000177095092
102.128980311316
102.215519653343
102.307526150739
102.096137629751
101.926145638917
101.989726991343
102.160690519826
102.193922997119
102.229962464029
102.19510705256
102.090150543519
102.109541799906
102.16278119425
102.174867679839
102.182888367321
102.159829662834
102.145896785685
102.198153293691
102.24329659177
102.256565302573
102.329466348554
102.391193384536
102.353662150475
102.361334207376
102.466736831917
102.423481576353
102.419138557931
102.450336139191
102.430573740683
102.289030890189
102.277484578142
102.490525044991
102.562681358544
102.291327908466
102.43354415487
102.563756887345
102.601334339355
102.630238885509
102.530445393162
102.384119948417
102.411852670295
102.584313817066
102.725545269805
102.664066620465
102.580118361489
102.41311131646
102.43058127835
102.519678289518
102.535700737685
102.664500728163
102.706997885665
102.668552067933
102.737999226981
102.596526804404
102.519678520276
102.712322150146
102.654484899817
102.573654038658
102.462270698035
102.421949065925
102.659763895046
102.644228607473
102.581852118516
102.688680075184
102.7228766747
102.791382435157
102.782120521171
102.730998622536
102.72542151439
102.602580134822
102.747918229211
102.939566965908
102.747568441064
102.739724485753
103.075739808352
102.994105425229
102.727018955837
102.774443830708
102.877607262796
102.652835762122
102.689299091434
103.196138264584
103.76872505709
103.65631091992
103.372661623383
103.379931390108
103.291771842097
102.647623021054
102.970134467055
103.350969126683
103.306400715632
102.936027864261
102.57595813459
102.709372236282
102.580489217499
102.321022530818
102.20892629203
102.248734325215
102.426781413657
102.41006188809
102.671356017859
102.668212603221
102.301827345898
102.208423508918
102.248675896864
102.254398560244
102.427460521273
102.446956217979
102.202240797283
102.08189800989
102.105291095443
102.093080786826
102.157778397264
102.26852518626
102.205404888879
102.133757966752
102.138343130821
102.160027980103
102.190916173713
102.086717216677
101.957401518591
101.987047148537
102.054287078689
102.007787727937
102.081819801852
102.16987321411
102.168250473678
102.127844833818
102.120651029245
102.046404954379
102.029484687672
101.962530692504
101.978557216796
102.144755621388
102.245151534328
102.146273188814
102.030073284653
102.116367360716
102.249866150814
102.251000853868
102.400938789055
102.47663144571
102.245570240642
102.239526781442
102.485098234004
102.486186763497
102.443013089351
102.581397466163
102.656205720439
102.55781584814
102.488839678672
102.381927194488
102.475365016801
102.813255000497
103.066601516354
103.098064952741
102.760994348591
102.552794825583
102.226854613148
102.158858909215
102.49228347674
102.710696395726
102.56681209179
102.443819407213
102.650186673614
103.12532976852
102.916363686636
102.61046743846
102.758182514327
102.877840132454
102.743963200378
102.463738839602
102.484775218741
102.347586479739
102.27696672614
102.347321762009
102.162178840368
102.402046127747
102.51011090396
102.243184848865
102.094469961261
102.030717696584
102.267278165782
102.59915668409
102.803900486121
102.604324205256
102.342940206052
102.320899427153
102.274814479848
102.423028976472
102.416573245828
102.163485872609
102.16319274393
102.181005751422
102.233102952323
102.122789668597
102.071897867145
101.902689806012
101.791242918131
101.852482353016
101.765778677324
101.768591679234
101.753821600755
101.606963329303
101.795546812349
101.708811728054
101.614413025641
101.476681837905
101.443573703947
101.520370992799
101.635016630568
101.60957518901
101.628355124981
101.426784726084
101.41983600352
101.40284554967
101.399222746692
101.491580944801
101.577861480052
101.594851054838
101.38508882055
101.320563818163
101.435224757308
101.539650567984
101.543525975735
101.436004539156
101.381552544927
101.359847950709
101.302317585712
101.373683687885
101.407887057255
101.272885275769
101.313857354331
101.3178536803
101.379022365821
101.393334897458
101.419966802169
101.46142539167
101.497390050084
101.459439448698
101.447777542601
101.272971884142
100.958772220836
100.891625869775
101.016854419402
101.160340074035
101.25936020335
101.281959325397
101.256881469836
101.229843901716
101.326563675224
101.323533510902
101.280778864142
101.095399266153
101.078300330614
100.83245161369
100.833346194344
100.944874158046
101.068539566978
101.129941464133
101.096404614066
101.023311603683
100.967366733331
100.682208509515
100.815329128503
100.723637337484
100.700605335435
100.855910006966
100.960773912261
100.987764994425
100.97558616076
101.033706129954
100.932397499812
100.743759600762
100.720273236875
100.797995401452
100.89618081375
100.948581688787
100.822071538456
100.522763775637
100.592869326424
100.727604935726
100.680604521005
100.404067509767
100.398194512856
100.587751792009
100.795943648242
100.7249224574
100.671357790171
100.605976078167
100.596821065475
100.599606791082
100.588361904713
100.458180324443
100.076467433768
100.28332489701
100.221310784532
100.443960996802
100.467729397282
100.234522539183
99.9994067118175
99.9926792412016
99.6290448256169
99.5719670796401
99.3138195294011
98.6594775372787
97.9867567346121
97.465269706235
97.2065730634736
96.7222322388773
96.0340576950247
94.9944030922086
93.8295042370674
93.1113736072703
91.3919636063692
89.0319376883305
87.5357460840071
86.8758090476842
85.9771711396633
84.8344611702988
83.1949978324904
81.5564158426388
80.2358531794234
78.0895473039337
74.950697708957
72.8912479453662
73.0899836210357
73.9870463323295
75.3465578492854
76.8586326940829
78.6939222721874
81.4501637710255
82.8040688289212
85.6116457985903
88.3460388513738
88.2467639339879
90.640404844482
91.0284586326213
90.93170226442
91.2172472026726
91.5467642244627
90.7756805962609
92.2327534421044
93.3845253340649
93.8308571860375
93.7919675271266
93.6333814473239
94.4516589770249
94.6643583686177
94.516803222566
95.0820031910578
95.8833839173881
95.8750849990038
95.7644325371129
96.264953167912
96.550156639762
96.7229529738668
96.0204092568275
95.0573875894544
96.5835086653221
97.3331728805967
96.8786758277142
96.88001051051
97.5212817892699
97.8136049840923
97.8793647361915
97.6816610633635
97.0704854906878
97.1960022776023
97.9148725203968
98.3224207078268
98.139839932465
98.0222174629946
98.0307138500969
97.9737864499003
98.2190292327378
98.2867685442142
97.9031397338732
97.6897878363975
97.9894681177748
98.1799128273495
98.3196126925426
98.3391785388015
98.5012508593842
98.5082907265156
98.5865570062323
98.66069367372
98.8055487720282
98.8320107475333
98.8227625269702
98.7501728871492
98.7658859526132
98.7046587691948
98.7169682700256
98.6136622512069
98.4246750150173
98.0779823319037
97.9103845420609
97.6630134754041
97.3462723705385
97.7671351476003
98.4864904363233
98.6107304667384
98.6069751694421
98.8957866854806
98.9577496816782
99.1331578277106
98.9486478718007
98.2628549795823
97.8744843400995
98.4409723220788
98.8504306059932
99.2449499357121
99.0950789053017
99.2240654300341
99.1485418572461
98.9823251864669
98.640798738801
98.2783167618834
98.0647304001264
98.9561886767076
99.3208861273741
99.0987791831534
99.0279729502168
99.0961324299684
99.210709764373
98.9410620468987
98.8409062697167
98.4893271040278
98.5178705304023
98.6836810328606
98.5981263135481
98.6824816152689
98.709565876929
98.7599471594292
98.3740269636533
97.3629684249037
96.3031355753577
96.8544773667159
98.0606439739878
98.8341253861577
99.129286238252
99.2043396402713
99.6049283164543
99.7328055788547
99.4012936497385
99.0328213617429
99.0059217433305
99.3528689581404
99.4462391561154
99.3273168239689
99.1621692908116
98.8809715039358
98.5280795665928
97.9145765248861
97.3598241399608
97.2912596252794
97.3580685560954
97.2242916639514
96.7028650178899
96.5441450956846
96.5495519766901
96.254099036912
95.1556850805047
94.6230570446654
94.9717615041905
95.4916841897734
95.649940326111
95.8352278595537
96.1148366716362
96.5907457446592
96.9579519569955
97.2629103600244
97.3084166394836
97.2088342653423
97.5599749680461
98.0704289223633
98.4004360564796
98.4869628775446
98.7221410150669
98.7436577061495
98.5897088263157
98.3789891707909
97.8468427216999
97.1740134171558
96.6632452396896
96.343282850005
95.3927779021612
93.9428331202015
92.7740353333766
92.5462546866529
93.2873234232852
94.7520622094086
95.9718552304616
96.4975415687077
96.8180274832452
96.8383766435811
96.9509313137836
97.1298417753021
97.2763273474866
97.105233201362
96.9437383289701
97.0132377380999
97.107479899762
97.0169377146884
96.7620950364523
96.5590431946925
96.2394195119496
96.0543185626584
96.126434755662
96.3530630096375
96.6118498003776
97.0533956497801
97.4478592247308
97.7241372471996
98.0287407808659
98.3549668819338
98.4782658913285
98.4696994509621
98.4304842978729
98.4026363663944
98.3567602967962
98.3064275760506
98.2109311883444
98.1054782390635
97.9173355658058
97.6576368032851
97.4915428886234
97.7055360004982
98.1343907594988
98.4091723466586
98.4984079850147
98.4419161871914
98.3183315234373
98.1483082647596
97.9259397162816
97.6641418049378
97.3850607164098
97.1285604176311
96.9544051960097
96.8246298632813
96.657231676105
96.430962021199
96.1488678722788
95.7989517859816
95.41862797053
95.0535294035477
94.6032281288207
93.9752462613652
93.1670993337632
92.275107307261
91.3774759674621
90.5691341685027
89.8410351235551
89.1337586047299
88.397739558564
87.626821844015
86.7947451229113
85.8769647249203
84.897310755187
83.9046118068016
82.8988838266919
81.8280800877254
80.7267114588098
79.5973970666732
78.4005777644043
77.1342002453131
75.8790933008147
74.7355234197978
73.8088082821914
73.2539391611996
73.0265884773708
72.8504454172249
72.4849294123082
71.7921360277995
70.806007401751
69.6073006416156
68.2567225626087
66.8657298041165
65.6000099120779
64.5484028241484
63.7906906523275
63.5221951416517
63.8948890463221
64.9377534657542
66.590818709084
68.6754950837591
70.9801703080259
73.2950134874373
75.3902657075271
77.128643551245
78.6289163113095
80.105512683317
81.5567619453641
82.8656232027581
84.0568871213083
85.1421455622466
86.0871865064995
86.9602151462117
87.7608928647047
88.4878100015696
89.1745204278002
89.8273044585779
90.4471903838193
91.0342904836761
91.5741842230782
92.0794439225126
92.5432463945508
92.9252481432123
93.209354043693
93.3980523244768
93.4575065850183
93.3638724701031
93.1630906518791
92.924903691945
92.7513383840775
92.7788754033785
93.0501821916389
93.5457641571613
94.1514388414051
94.6768653131404
95.0135039875701
95.1717402551873
95.2203802540637
95.2159115431474
95.1382772950644
94.9760076715537
94.7568876289986
94.5390842196279
94.2809724323995
93.9066059510108
93.4285771764141
92.8874879817218
92.2996111486228
91.7063548539085
91.1001006172032
90.476745246234
89.7904033137967
88.9907807489646
88.0496570048249
86.9498131827621
85.6669503512322
84.1753961685951
82.5755215123806
81.0229080853186
79.6471503115019
78.6887228970387
78.3515418629532
78.6704086390585
79.4116246195536
79.9298264060048
79.5197941117993
78.0477235996441
75.879887862239
73.5130337426183
71.2501462655466
69.1911387333372
67.4731170871481
66.2290977725074
65.4974823125933
65.1934583653828
65.2165754786941
65.4740714512001
65.8442947236266
66.3150777841118
66.9773704188992
68.0372959954651
69.6117878917455
71.5946838184998
73.7512183298409
75.7704442011654
77.4999936585541
79.0045618150825
80.3179054496588
81.4756183966769
82.521417303077
83.4423107387896
84.2122125681525
84.8295434739846
85.2648229822864
85.5215838071812
85.5840984949475
85.4904685773768
85.2991627162565
85.0800376834217
84.9463268503541
84.9531082673065
85.1133520015159
85.4636373486851
85.928376382564
86.4173409686931
86.8809376839308
87.3031817954441
87.6565764641818
87.9305053392147
87.9607167612635
87.3334738798515
85.529608306668
82.1793411034157
77.669859764401
73.7694851946702
72.9850566611886
75.8451960427454
79.7670670799571
82.7507855412297
84.7031232716218
85.9707814058613
86.8402105861075
87.4993426818061
88.0100924960744
88.4465996837014
88.8388063821305
89.1599220036646
89.3764826562404
89.4909240088138
89.5693766179231
89.6517426900833
89.713332272154
89.7776433058858
89.8039809627702
89.7264395864607
89.5671756112687
89.3601632373737
89.1389702466029
88.9430366966781
88.7915410845418
88.7427850946618
88.7612641099453
88.8205928400322
88.8532289248003
88.7279687288629
88.4641179216353
88.273465313365
88.3370660615193
88.6152785372206
88.9050398602727
89.1779144325566
89.5159976904824
89.92840471808
90.3659433719846
90.8013448467359
91.2089451929151
91.5685708487999
91.8593634470609
92.0666126537289
92.2298534336048
92.4345598277611
92.6342111299312
92.8035387316841
92.9381759917263
93.106968099738
93.3226992484069
93.5204152864974
93.6740203077677
93.7951214955919
93.8685320312197
93.8562493246481
93.7977108554851
93.7082099629594
93.4680889189855
93.1355275518493
92.7936724922916
92.4942694082283
92.3475262967931
92.3411996952013
92.3605274363117
92.3923392999567
92.4056802475806
92.395380404807
92.3768804918741
92.2524001721391
91.9459990964209
91.430846691648
90.5867047344822
89.4264836066848
88.0198817496413
86.5724871871194
85.5310202883151
85.38719297516
86.2781364963841
87.6633295054275
88.9878628464849
90.0862427813782
90.8580324818246
91.3118877465165
91.5304478294178
91.6347449323912
91.6939839260657
91.7179637980164
91.7401152663055
91.7381407696189
91.6671619971172
91.610365812754
91.6525913362017
91.8331738198998
92.0211549067823
92.1854174678845
92.4042049061764
92.6079081882011
92.7446852517074
93.015313063162
93.2805975997017
93.3825365419661
93.4726603401848
93.6040596353772
93.7558529848298
93.915133920236
93.995016008163
94.0018659586536
94.0985625607866
94.215263758782
94.2120466172408
94.2367328301577
94.3260000895499
94.4317144750965
94.5563134885455
94.745754990476
94.7341579804521
94.1354205690051
93.1938466207361
92.717782408453
93.0029600913775
93.7444159140551
94.5455651249662
95.0540796242447
95.3109301483405
95.5474669319918
95.7728749721505
96.0051002867329
96.1380679569815
96.2683352058592
96.4710930536934
96.6163539093799
96.7473784425094
97.0312554518519
97.3056842934847
97.457742718405
97.598033811806
97.6693377036965
97.7583831724572
97.8958072768388
97.9521529383627
97.9630576469394
97.9334040390289
97.8941528916794
97.7019404904309
97.3278342060997
96.5332746797562
95.1288324422553
93.0251437472392
89.9871392220421
86.2059840206664
82.1440028570103
77.7997505851906
72.760730366422
66.6460017594461
60.049108560765
55.0194571902165
54.3910961573734
57.9244813458557
63.5182173563683
69.4935995435009
74.1369649590112
77.1992719168824
79.3499118538773
80.6536761111382
81.339507254175
82.1754061777362
83.1814600299591
84.1113145820353
85.2712814559668
86.4678125051881
87.4289881198974
88.1204310431022
88.6884685350933
89.1996153972106
89.6778231889012
89.8734286103542
89.865190890094
90.1024632237964
90.3684110081528
90.2249937898664
90.4185611201874
90.962049897008
91.4765893579909
91.5879636571686
91.2896214395649
91.3873469792816
92.8204333576426
92.9229419893001
92.3683013972856
92.3935936563315
92.3941580950523
92.2923339699145
92.4954532959181
93.3174310156997
93.2128295837017
93.0945751829128
