1798
3999.43349933624
650.420452594757
1
128
4
98.6486240174323
98.6261398647339
98.6498933816719
98.6817612296978
98.6521794048534
98.6828669202477
98.7101609865843
98.7393182551745
98.8162131519063
98.821412547645
98.7427771226877
98.6728325543768
98.738388606236
98.7670785341329
98.6795246920721
98.5800454577608
98.6087305622451
98.7517556871019
98.8537312749092
98.7812891303633
98.6201404674184
98.5839228043992
98.5759023167122
98.5905252557594
98.6538753716581
98.6494947296533
98.7498763016651
98.7952034702887
98.6690853234496
98.6154573912067
98.6681853848609
98.6844293737806
98.6918892992063
98.7493672531426
98.7234285203583
98.6181460996502
98.6819058561305
98.7369223482306
98.6561642277598
98.6925578661912
98.7834054274901
98.7961442714806
98.7172845695045
98.6612051932646
98.7004681907316
98.7408440453901
98.7026613578744
98.6862993905278
98.6753319292299
98.7083893864958
98.7124015279715
98.630971235486
98.7065112806438
98.7787774363724
98.7833731283904
98.7230112968633
98.6969772713899
98.7396423538278
98.8029657063965
98.8713597937882
98.7478326014905
98.6668254149019
98.7629984182549
98.8122838347681
98.8123957703201
98.7522136586133
98.7047778986778
98.7272596512243
98.7429125464316
98.6488102638478
98.7246697944947
98.8047740637438
98.8746930066064
98.8300524490485
98.7241516729062
98.7153612002985
98.834516038561
98.9072527526219
98.661813986477
98.6506281467329
98.7246735730191
98.793931034548
98.8223603668256
98.8237345363622
98.7826705518813
98.6508246807465
98.686968615354
98.8180642488168
98.7518880724142
98.7538030065195
98.7340779916563
98.7226964558619
98.7588800103151
98.8094356585632
98.7468001605933
98.6944342494661
98.7776151484534
98.8206521398768
98.6746158939217
98.7069342170268
98.7794551625433
98.7776026146174
98.7836710606866
98.7228051330689
98.7377908026688
98.807421963425
98.7839092337337
98.7452042816275
98.5590153245182
98.5748754453081
98.6815635833321
98.6061903551384
98.6131459652789
98.6958196864339
98.6708458291643
98.6289734410151
98.6714855949596
98.6540332046496
98.6071988071962
98.7147191466704
98.8272202180504
98.8230287956248
98.7732599151357
98.7660490281869
98.82291596718
98.7807354941826
98.7271985720815
98.7773290855348
98.7747290501269
98.7461034627159
98.7685339890499
98.8546320949448
98.888237691955
98.9151514719976
98.795450385259
98.8269627499159
98.7574267183139
98.7846353315732
98.8796297333078
98.8334399657553
98.7736586494642
98.9129574239982
98.9323941476108
98.7269306757436
98.7659998510258
98.8506162103603
98.807066208425
98.7769987328019
98.6651013539319
98.5928563071538
98.6172198471012
98.7079912930029
98.8395707957061
98.8521577709761
98.731332355653
98.6745047431071
98.7418556557945
98.7527496768144
98.7199988793418
98.6829908485107
98.6877331761109
98.7784132118517
98.8008109999341
98.7370174077205
98.6547349047789
98.6697867723487
98.5777302301122
98.5187214712283
98.6824965734833
98.7617487297218
98.8244522297987
98.839469360626
98.7992093048284
98.7211340927366
98.7332111982536
98.5546315026988
98.3728953806392
98.4756160740005
98.4991701199502
98.4290971683167
98.4072354533975
98.4457479400815
98.4637615676585
98.4527547903985
98.429018303495
98.4145894309458
98.3246883977611
98.330662169033
98.3892853452932
98.2997452716399
98.1770599564838
98.1298016753665
98.1177153083984
98.1008241479054
98.1643456263883
98.2096311358846
98.1633749673411
98.0928211069781
97.9425089784397
98.0487024023069
98.1987408623667
98.1670246017984
98.0233024788627
97.9726392621931
97.9394928119737
97.9587402668044
98.1067833484954
98.121838130006
98.0723314779792
98.0888372397738
98.0449882763926
97.9607968421554
97.993506487091
98.0393350905811
98.0163822336177
98.0284836333261
98.0543325414342
98.1126003636535
98.1743071099446
98.0624106280944
97.9582541250062
98.070195778833
97.9694958404125
97.7171671250489
97.7509355966409
97.8231725715648
97.6802441590324
97.6374815464755
97.8063194678319
97.8441824290336
97.767611845661
97.7354525041672
97.6736461404942
97.6489006051261
97.6539775533704
97.5758782682257
97.5509633534491
97.5785656537866
97.3922077036894
97.3397941730396
97.5782532343053
97.6101096926342
97.4597041856557
97.4066815208223
97.3585519170845
97.2983080468358
97.3416243715619
97.4321410710206
97.423185555138
97.4056576058303
97.4671007074435
97.4628436466965
97.3391174246984
97.3046243314741
97.375833552029
97.4309811185693
97.4363699926627
97.3163889916852
97.298686938832
97.4202202797006
97.3411851435048
97.2559116278522
97.2776153303758
97.3108449905657
97.3274751867775
97.3293982444322
97.3436473558504
97.2781137101355
97.2869559111641
97.3084397573001
97.2070127431707
97.1784130918769
97.2635251606068
97.3008253081177
97.1814731978084
97.1369504389964
97.1865564331598
97.1379311377419
97.115923157642
97.2042929870763
97.2205431846771
97.0966855683889
96.9892943077881
96.8910883953432
96.8772936622751
97.056594977499
97.2247172225401
97.2714026215696
97.1842377761816
96.986860216725
96.8983424312544
96.8214238752395
96.7220153702313
96.7099328772207
96.7561903776451
96.8166563315427
96.7426100878361
96.6151527701063
96.5945457443816
96.5049458343586
96.328088462194
96.3589052963518
96.4475160475608
96.3888252022449
96.3411934698498
96.4470724024551
96.6008372317475
96.5648648468909
96.3707081582675
96.3068405455798
96.3005808364942
96.2927233961158
96.2744171999949
96.2597953656046
96.3243487837724
96.3549702664251
96.4819091398765
96.6149199516921
96.4066752293351
96.1885230540232
96.21337896138
96.3612552054852
96.5380628531849
96.685269831056
96.7287409042868
96.7078568165864
96.7068369699749
96.6857676321068
96.6622835089235
96.6753533639957
96.7155621659911
96.6876898873187
96.6026705961227
96.5885870659926
96.5151826604527
96.4167834828357
96.4899924833383
96.6225095439175
96.6755900117889
96.6053318368781
96.5007770439107
96.5022230822527
96.5279234580949
96.5612187150953
96.5890822446221
96.5229309649666
96.4777160555926
96.5200383723997
96.5091427900566
96.4757392608946
96.4721056135708
96.4612034715286
96.4282830061816
96.4743826737244
96.5088336700037
96.5504898431046
96.6052170996831
96.5269370009489
96.4146871444323
96.3931246972604
96.4363060949085
96.4713601081766
96.4001978157861
96.3717761910552
96.4576222267222
96.4726767692896
96.449523825008
96.4948071283765
96.5619106393529
96.5822916316202
96.5122040969242
96.48453277148
96.5403974318319
96.5337543302976
96.4682743623703
96.5278720160849
96.5777790139868
96.5051547391044
96.5023466060171
96.5535233523703
96.5463705455452
96.5569926202956
96.537833276427
96.4868313816541
96.5419870861629
96.5779304509996
96.6031518032582
96.5949773189718
96.4906705883365
96.502212263043
96.6324302049213
96.61840574429
96.5618738818902
96.5943332623487
96.6085434720543
96.6978771652429
96.7430543454387
96.6549050096325
96.6722501821254
96.7222676613735
96.6772047453466
96.6327063299075
96.7108821170967
96.8507945174408
96.8861847662235
96.8548762021699
96.8325223277549
96.7926373904827
96.7644640083295
96.7916686503156
96.7529336034049
96.733607329637
96.7307762540226
96.7126467729318
96.7570984593612
96.837414438552
96.8136349352742
96.810915139492
96.8544341543242
96.838499499675
96.7552676969
96.7594644656511
96.8450410613475
96.8697666040167
96.8965135088595
96.9268846979183
96.8449317888458
96.7940658999171
96.8687414013131
96.9013891463724
96.91550188723
96.9179485939694
96.9275151775664
96.974061610869
96.9476834627543
97.0183896587709
97.1724130223537
97.1681748379654
97.0404999124727
97.059193933051
97.0717971598418
97.0070517954964
97.0276760761912
97.0497588542688
97.0301215501112
97.0368138969948
97.053056520754
97.1095964709084
97.1617604936805
97.1880842772545
97.2166144216574
97.1945652947147
97.1790996392134
97.1847925762422
97.1187160332825
97.1094836298614
97.0967475778576
97.0825383256223
97.1329955360688
97.116175426039
97.0900497419079
97.1296305194481
97.1680915509639
97.2316060036911
97.3143602362786
97.2708391917136
97.1319117381172
97.0632482360781
97.0448240442693
97.0727400444207
97.1396590295145
97.1933143308603
97.2050800823958
97.1752058477214
97.1798206241757
97.1689750584724
97.1391800576569
97.1231373637337
97.0920690163539
96.9909666533539
96.9221472890474
96.9695901393325
97.0303182957967
97.0286334569836
97.0736207280762
97.1600237784858
97.1369400343208
97.0703684793517
96.9640334607495
96.9048158608817
96.9446158338808
96.9623996566682
96.9177402288285
96.8799598024297
96.9053462852124
96.9531911980308
96.9354869232258
96.8849620780898
96.8489360110967
96.8619125421417
96.8799917466536
96.8538205547888
96.8930748300706
96.8965384043409
96.827333448367
96.833936266185
96.8762961712929
96.8948961526454
96.911065700884
96.9293348596169
97.0007520934723
97.1318507971243
97.2464688185644
97.3158316377133
97.3202253061645
97.369558525928
97.4523529567078
97.4699096986206
97.4258377048641
97.4407159089915
97.4092914354294
97.3380444845735
97.2828620243652
97.2694393765379
97.2795716486618
97.2939104592995
97.2945959245823
97.2535863753128
97.160616782682
97.1026713947229
97.0597793921566
96.9022526724822
96.7956102351751
96.8376028955135
96.8487871220682
96.7236397960544
96.5729481745156
96.5341087871444
96.496653831392
96.3893413852946
96.2966056476582
96.1957375314417
96.092254085378
95.9734707275383
95.814682966714
95.654992403687
95.5091896129066
95.3083400336551
95.08349455814
94.9006201356115
94.6911121932511
94.407661755477
94.0896900816093
93.8156179606466
93.4682503120421
93.0823004822966
92.7953430420253
92.5090131797803
92.2325627280363
92.0024445949874
91.7762389548007
91.5578490601669
91.3684048971199
91.1908452453081
91.0363343134791
90.8267340608173
90.63993964254
90.5126617321959
90.2122685960647
89.8520884783372
89.565258237476
89.2675688370153
88.9034291768079
88.5470475614661
88.2068656577136
87.9280080250707
87.7608145383855
87.7005463461341
87.7876729016428
88.01492868984
88.3242784985033
88.7716526250053
89.3564318864313
89.8639501253833
90.2742861858492
90.7064809491628
91.0470863766099
91.3325542863239
91.6123579072678
91.8397356276381
91.9878648255574
92.0667012497855
92.1513157724715
92.1798979518216
92.2676692662858
92.4955553471897
92.6840579317702
92.8440774664022
93.0600032188469
93.2707770347531
93.4343477726798
93.6332401294968
93.7570204598173
93.7624447391727
93.7403392173921
93.7496494903719
93.6549059989247
93.4657771251563
93.3462684243203
93.1601576630673
92.8147320740525
92.419395279396
92.0115817896859
91.5360433223174
91.183800414741
91.0910523165972
91.2359969897649
91.630666047136
92.2282755292996
92.8966326702249
93.5705230220066
94.189385702398
94.7401984217904
95.1787922845745
95.5233601628135
95.7459024755951
95.916763050508
96.0858363220534
96.2462238615019
96.4124043874192
96.5299351621455
96.5672678327643
96.6080347670154
96.7055060169348
96.81019102609
96.8832791434619
96.872741145793
96.8361236382038
96.8717814562
96.943326740171
96.9919795155767
96.9959061925515
97.0000869405704
97.0378550292065
97.1307366993155
97.2118107217449
97.210610991811
97.227756721873
97.2462332899173
97.2438431161877
97.2691694928433
97.2745069437215
97.2581807027245
97.293275201693
97.3614959581413
97.3905179208285
97.385145015504
97.417413777624
97.4761301514211
97.5009060019291
97.5087487839928
97.5201608269299
97.5302243207012
97.5169886820998
97.4863145798007
97.4694910925322
97.4627072767936
97.5051350699281
97.5080901956409
97.4980702417336
97.5202490599561
97.5267111905336
97.5285801031617
97.5914507152116
97.6503204223466
97.6379678193773
97.6014154148974
97.623554878175
97.6416569546413
97.6201502346195
97.6539778542909
97.7173413972633
97.7090498446249
97.6689345040584
97.652686948609
97.6697680561435
97.7169419258124
97.7582928486746
97.7577887080396
97.7946049468567
97.8099204961846
97.7604616171942
97.7524495074869
97.7677661966197
97.7536700028116
97.7439452086866
97.7607138211667
97.803685520872
97.8353134848515
97.8379922402527
97.8365835141924
97.8323573901844
97.8219864227651
97.8391484016084
97.8149419991469
97.7832709130161
97.8157290936623
97.831851747869
97.830273156644
97.8081693517405
97.8332781378253
97.8063831018215
97.7592293364591
97.8057577694832
97.807395428888
97.7705344845639
97.7688201992103
97.7993830670838
97.8148143337335
97.7906097367065
97.7809519537761
97.8454795804261
97.8761212506648
97.8542723012697
97.8711222042547
97.859503056942
97.8451216682327
97.8575997366923
97.8265483519906
97.8631376369079
97.9039162094353
97.8871265361979
97.8888336477018
97.8785982634824
97.8752763079404
97.8608098238073
97.9018822753799
97.9791064371718
97.9487279748953
97.9759045706919
97.9755854563571
97.9680068093862
98.021600060704
97.9841354313845
97.9851585151478
98.0664901600462
98.1517117790584
98.1390965586715
98.1121934397688
98.1273808235461
98.1184852269751
98.0972916876767
98.1646870290406
98.2361645449641
98.2487294059983
98.2503083539639
98.2439838304503
98.2446918113845
98.1839442412843
98.1264369668632
98.1152461130011
98.1478976297838
98.1610112633447
98.1442372964228
98.2043438590477
98.2428672117216
98.2123166902457
98.1833633624996
98.1775521191041
98.2552966075833
98.2728391989596
98.2738496116997
98.3547903822854
98.298461984555
98.203412000473
98.3186476975691
98.3806932635395
98.3530848552264
98.4049008868284
98.3947250610348
98.2842523762547
98.3017352610024
98.3321986685389
98.3258969677901
98.3113876815645
98.2910740863822
98.255568978534
98.2885624064076
98.3175272725473
98.4126704476879
98.4462622925196
98.3597097834839
98.2171899741468
98.2066759725353
98.2691721275874
98.325717030264
98.370670242492
98.3381333073025
98.3040494051077
98.3412250487421
98.3712316793324
98.369114903032
98.3572203228181
98.44167303815
98.4077176712784
98.3200110047459
98.2952895426421
98.4118603197211
98.4617989847066
98.4329881729711
98.3907930961695
98.3961361264768
98.4245562959469
98.4307054758631
98.4791236267337
98.4727570533317
98.3853105155039
98.3240305985835
98.3365683851998
98.3806330668257
98.4485328632943
98.4514388717197
98.436139274349
98.4298394329777
98.4607613458676
98.5056582947321
98.4460131989525
98.4708457007765
98.4591870613326
98.4394824263331
98.4152105511863
98.3427736537444
98.3988051074165
98.5760025366158
98.5795667214737
98.4906137275562
98.4602468661867
98.4635906762426
98.4603560151182
98.4985138814043
98.5371479421218
98.5415594778565
98.4754415100464
98.442725484451
98.4741268348276
98.441045829221
98.3905138780073
98.4099289088149
98.4476083826813
98.4369099965433
98.3900709395851
98.4108067804433
98.395987487149
98.3619537032961
98.3107697621023
98.2798751509751
98.2871931054972
98.2793696164885
98.2639571192873
98.2665868565686
98.2239065302487
98.2650626767185
98.2336988327615
98.1884369285218
98.2105409205413
98.2119937745231
98.2246077741269
98.237474852855
98.2602540415333
98.2667166918864
98.274981418413
98.3413523311863
98.3914047763884
98.4810488743623
98.5233362154389
98.4081409434159
98.416946412023
98.5968593179328
98.639800988792
98.577500635093
98.5632654351422
98.4706421900276
98.3597867454952
98.3741925781825
98.4016532204345
98.4053429796439
98.4052449090472
98.4214434306871
98.4619233982757
98.4032329886003
98.466922401966
98.5484637073191
98.5171550779608
98.4966393393521
98.5103213991057
98.5309488078894
98.4571059631892
98.366073430574
98.2885712381707
98.3029032795208
98.3009486645559
98.2862015472042
98.3172701883831
98.3452195905374
98.3903336411196
98.5269653287367
98.5852656794017
98.5766598962926
98.4943018376659
98.4840539201827
98.5127685466274
98.5388089153796
98.5066619119035
98.546260180326
98.5883599965713
98.4999232996884
98.4199856650158
98.5523649653834
98.5604184109569
98.5497557428932
98.6065722071011
98.6425476634748
98.655541099071
98.6933594579277
98.6980026035725
98.7579492587244
98.8458183607936
98.9088280174078
98.9182379546607
98.9520019911203
98.9725628201555
98.9855693074358
99.0415282510952
99.1844330635528
99.0896370544529
99.0829638096728
99.1804730029115
99.2096879481134
99.1660161961189
99.209890433333
99.1119735299612
99.0407972061357
98.9855381995467
99.203390561705
99.3541598540202
99.1965058114114
99.056234957815
99.1993769387674
99.4009537517365
99.4056477499009
99.3877390275762
99.2654171002382
99.2301821970436
99.491802337811
99.222554756726
99.1092324406695
99.5550551297826
99.7445042732652
99.5173428372511
99.4696082922455
99.6132035323221
99.7324286887304
99.5145170987584
99.6168128580227
99.8889123686031
99.8657090237379
99.5791096673581
99.6315164636569
99.68817349243
99.7581270280599
99.8237331787311
99.6976855950006
99.7507458668047
99.9043391161043
99.8351562878973
99.799852977585
99.4824525971345
99.4708741288343
99.641264240831
99.7351089642949
99.9965829367305
100.329894897932
100.175867251509
99.9314219501018
99.8174817201213
99.7644125266224
99.720884887194
99.9674347683579
99.8266439202902
99.6793753451482
99.7227058058839
99.3068364747009
98.9047509185336
99.2776434028402
99.4009580312536
99.3800350421297
99.3776606245144
99.4305458960082
99.3028125721001
99.0028759369591
98.9322522972083
99.1718453055804
99.2678121182058
99.2201279305448
99.0952478085365
98.9287836441146
98.8466044206397
98.8832817163721
98.8660389400588
98.9244555734925
98.8413766742225
98.8102950960013
98.8512128030904
98.8905460587627
98.8653587140829
98.8648006406726
98.8941645580979
98.8427267305339
98.8225977616686
98.8920410118422
98.8836304565072
98.9353620543604
98.834612206453
98.6918384286142
98.6174910589738
98.7122525702605
98.7498960967323
98.8703293409867
98.9489265789989
98.9318735321975
99.0157760824384
99.020985558741
98.7758760003592
98.8405117583029
98.9061394416297
98.9779757149065
99.1006544842145
99.1505433277914
99.1246101501466
99.1437043452875
99.1617358852274
99.1601485636527
99.1988314462309
99.335559289857
99.2407959134512
99.1237571893683
99.1510844990841
99.7514890521639
100.182643898083
100.27848056169
100.391312771515
100.373656663221
100.21414021372
100.351885099904
100.317975130176
100.229108867409
99.9539867956161
99.9253574162341
99.8576650597649
99.511116302281
99.3657897949736
99.4137097154573
99.3456079162669
99.2261095586723
99.0581299412883
99.1151234485144
99.2991085046468
99.813465507193
99.6979051955605
99.598209257388
99.6891560938506
99.6832980993031
99.5753181334182
99.4895154069199
99.5174830537438
99.4853521956897
99.4802892674485
99.6352357578616
99.5139759494513
99.451701274847
99.410469020541
99.3306726375191
99.1871075162114
99.3454227719566
99.773148321583
99.7702988608195
99.3094280119173
99.3954025364365
99.5129696188091
99.6387536176734
99.3505904259025
98.9259039003848
98.8522077619545
98.9982837926337
98.9050562485526
99.0360743882763
98.8895587932725
98.8251428220388
98.7868046150461
98.648451723397
98.565194969934
98.6988141041617
98.49404206522
98.5149971764937
98.6633991066069
98.574337498672
98.4090616775332
98.5616710796912
98.6482179938812
98.6919534574809
98.6886050478685
98.7403054715163
98.7176721625333
98.6335361512396
98.5313818092015
98.4638660936684
98.441299964653
98.5734992321282
98.69946147105
98.8320861548339
98.7666446391786
98.607027300107
98.6728000586956
98.7786160035966
98.7324228579198
98.751821521817
98.7402595308976
98.7715193524758
98.7351080931434
98.8019546764071
98.8897965582799
98.900732355218
98.7221324065796
98.679792954721
98.7296899909661
98.786451982369
98.8089615234959
98.8491461875211
98.8115516836909
98.7638041840108
98.7253367610658
98.7669727760084
98.7946494199641
98.8555535581027
98.8085508397838
98.7728626154862
98.7039727871004
98.6912450573718
98.640972482915
98.6399362086702
98.6756694002243
98.7419275864516
98.7277436704796
98.6818586878227
98.6198330806695
98.551814541698
98.4663792458538
98.365217629081
98.3536979083487
98.3851024830326
98.3432125049618
98.3314439109451
98.2570392135145
98.2242038028357
98.1867545359086
98.1264191943837
98.0894170962145
98.016520774407
97.9958765359
98.0484412381991
98.0102295962241
98.0539443778615
98.0592636614079
98.0533387626934
98.0201810150704
98.0142640383911
98.0015071139985
98.0194849628023
98.0076865170806
98.000862994757
98.0091498200239
98.0291749870861
97.928247910097
97.9032181657953
97.9276312328058
97.9164559041668
97.8764392885214
97.8335433226649
97.7909595270389
97.7934168569318
97.7537836256998
97.6964926177735
97.6508731375912
97.6159280151281
97.5531006174703
97.5530384683377
97.428665632358
97.3329258692024
97.1938668259253
97.1570806921857
97.0698613996679
96.9233796585225
96.7257175860562
96.5211551605652
96.1664203087442
95.9241782825784
95.513724607941
94.9058201761058
94.0268294654074
93.0374956344478
91.6372889604513
89.9501792706706
87.8095483464564
84.88342937429
82.5114706268689
80.4382441654729
76.9306045292788
73.9370207505265
71.1454090079941
68.5011786914561
66.0902351980415
63.7473689372323
61.3564681984876
59.5415057120813
58.2393604718575
56.8228412812592
55.5121449747681
54.4738513052782
54.086773426059
54.1600560096511
55.0956556529382
57.348606782646
58.6792094654019
60.1574326643451
64.8113465255443
66.7877212726226
69.7082230677874
72.6978574567556
73.8369234309556
74.8564893248335
76.1453599817148
76.0627533661583
77.1515298881706
80.082243541157
81.1589559013737
81.3016364902065
81.1127233481237
81.934436830885
83.2485342604741
83.4306009260613
84.0437044183245
85.5449883262393
86.1107947597355
85.9903321702655
86.6993720633295
87.6795171413558
88.1558232641897
87.9530927903283
86.9959803580372
88.1934240827017
90.369665335543
90.2196068524067
89.6714500567813
90.3528771092678
90.998087060811
91.0109577060609
90.9001551363854
90.5894385341642
90.6102373895808
91.5243096651029
92.0188606119737
91.8865363891042
91.7849631080692
91.9311780562382
92.0253298954056
92.222758763129
92.5082106806899
92.3586284983596
91.9958622916783
91.9824016046534
92.0891632789801
91.9929842389837
92.0130289872229
92.288380743429
92.6384349307575
92.8949396799535
93.1001249063862
93.3416775161931
93.5510090926367
93.6546253730962
93.7331461968301
93.8335351643002
93.9064652024396
93.9188876709051
93.8937534822267
93.785066607785
93.3819262574321
92.5725089310599
91.4960949744746
90.4419120333976
90.3101709323884
91.4287413728721
92.1561804556087
92.4820238396686
93.1951153192421
93.8233305783679
94.159294649748
94.3615208847107
94.3134474888667
94.1527472094379
94.7111575975381
95.074702665527
95.1415024287761
95.121170385663
95.1678453148773
95.2542937298166
95.3337281816846
95.3169053231747
95.3140565512163
95.3912119581024
95.6823036862965
95.7582038819604
95.6612033011808
95.5474583461422
95.529278115923
95.4623260413949
95.3725200969112
95.3992692154329
95.4377824509265
95.4830710543327
95.6076262811684
95.7042457075391
95.7491957892288
95.7716415567441
95.7004468457055
95.4161866277159
94.8638325352645
93.6443068880352
91.7480412607059
91.3302934003395
92.0578808450143
93.2719187927984
94.4592198559187
95.4636765440168
96.0783657875695
96.2766373358506
96.3176765154829
96.3605319166455
96.3733314025519
96.2578877696005
96.0719221964604
95.7895569052602
95.4433571986757
95.0287582583521
94.5229508064256
94.1080723184561
93.7352904153955
93.2432426964954
92.6661888032191
92.0857704926573
91.5510181389213
91.0361293496827
90.4493792969417
89.7981156419209
89.2433852584472
88.5475745619443
87.7383343624616
87.0712675743295
86.8561529449853
87.2546414264248
88.0579507249765
88.8012248064487
89.4339448877413
89.9031724298887
90.1810646524275
90.8773161924582
91.9417651033009
92.6188448478897
93.1518494504811
93.7520891514774
94.2026614868149
94.4421251742671
94.5417760352006
94.5240153453097
94.3090087768025
93.6313563393403
92.4211966696968
90.3303225864413
86.9740229879429
82.8456540977391
79.685266322612
78.8441003021164
80.4803324748753
83.0985916931696
85.017709657114
86.5918460876229
87.8559173740362
88.6488282900115
89.2482132164981
89.5808930285822
89.693185044693
89.8649744693189
90.2187692357435
90.4903548385177
90.5460834678602
90.409731909281
90.0278662634675
89.4456862794687
88.8438099854418
88.3544743963449
88.0499282214616
88.0074170903173
88.4915712659334
89.4074111886101
90.561651126594
91.85633233066
92.8484587039081
93.3871547515355
93.6890880801409
93.8881150434151
94.0019936727431
94.0317151060269
93.95046095666
93.712103410974
93.3197143928389
92.7856150511314
92.1940786315863
91.719895337295
91.6442886017015
92.0071985824958
92.6038475234539
93.143465453842
93.4751922454342
93.5639266114159
93.3939110327829
93.0146000945184
92.4644901733624
91.8488939020334
91.2609455379396
90.6898414579203
90.1406608091152
89.6469643980982
89.2006205492257
88.6441497041233
87.9077453322706
87.0980957407797
86.3026982007235
85.4691258761041
84.4456636752262
83.0964634591559
81.4025081188522
79.5607565544628
77.8202999707407
76.2787437683332
74.9153636308855
73.6343814834683
72.3445613566205
71.020161495443
69.6416996305297
68.2144123141709
66.8089281652653
65.4492459804311
64.1304429766928
62.8491005866364
61.5561194146477
60.217541910619
58.802252666279
57.3315458501365
55.9113785656639
54.6787555536208
53.7823825186853
53.2950035013976
53.0696749226839
52.8574502639216
52.4753155538358
51.8528330299245
51.0142381352947
50.0276300133577
48.9580904417918
47.8849641870763
46.8954435029649
46.0952195213107
45.5761486207438
45.4329786946896
45.7383276709313
46.5091396213266
47.7275509131209
49.3640736589526
51.3306966678467
53.4226771451889
55.4161588853276
57.2770174901178
59.1392900363432
61.0857729780598
63.0653066273341
64.9855094822917
66.7978374782974
68.4909864037174
70.0719126416127
71.5524055808185
72.9477703647893
74.2686583832936
75.5328544482402
76.7650532684414
77.9583726075043
79.1084890128791
80.2455481048987
81.3614776495514
82.409214080689
83.3302468298248
84.0462549090851
84.4749649530121
84.5394782216693
84.2356918475057
83.6804329937965
83.0577758906191
82.6191144518851
82.6466351464248
83.3158113634425
84.4893251488903
85.7459202293105
86.7517850912114
87.4401014214525
87.857423521838
88.0413238134291
87.9918885758559
87.7278398237094
87.3148292452117
86.8032367468243
86.1995442827035
85.4670535831131
84.547056060825
83.4169109611602
82.1484643458742
80.8253933188022
79.4914629324265
78.1730259205019
76.8631391113769
75.5176789981756
74.0661169254346
72.4538046883226
70.6012170139939
68.4848855081682
66.183146066421
63.8548257009149
61.7078094009999
59.9684426748138
58.8756984605348
58.6246420129427
59.1971595995337
60.071565025752
60.3048052205325
59.3377240801718
57.423200531405
55.1420030100431
52.8934490030862
50.8573439043871
49.1134837777848
47.7511158827549
46.8142542796653
46.2676020018248
46.0304509385112
46.0029202824301
46.0829327653275
46.237218420998
46.499234475691
47.0087568565661
47.9529923932195
49.3955010070158
51.2244059917323
53.2295711494606
55.2169367467722
57.1084037299412
58.8829034534857
60.5563683393555
62.1490169586275
63.6526720118122
65.032172161652
66.2685415584278
67.2717765131112
67.9687877718982
68.3436303838789
68.39366789706
68.170522969146
67.7906330421872
67.3807546858926
67.0887076552997
67.0336959839624
67.2539491123428
67.7336202552697
68.3933768233204
69.1306859530486
69.9016918289379
70.707522096188
71.5544507418249
72.3429832466665
72.5775716123658
71.1059992364424
66.8810809526679
60.5097279967235
54.5261894958692
51.6887464916825
52.9249158582404
56.5308172185243
60.2495733545483
63.3468990892464
65.8978202292107
67.9478685745244
69.6064442181707
71.0183529141977
72.2311290853452
73.2088206873802
74.0032904832081
74.6525340791664
75.1226520062711
75.4142880037991
75.5577320906478
75.6516560755136
75.776948044765
75.8643310703981
75.8168043108718
75.5927636164458
75.1991065096162
74.6895171249275
74.1864191684956
73.8251997110941
73.6390753171052
73.6089757455223
73.7110269176551
73.7784299210086
73.6303434643099
73.1998716751327
72.6858180313273
72.4793501982414
72.6980596580364
73.1405453754257
73.61701084184
74.123718609563
74.7506008525565
75.5567496024084
76.4831088727487
77.3646276820414
78.1272951466811
78.7903306098357
79.3522873996268
79.858647263501
80.3044771237614
80.665267916887
81.0014393050383
81.3383889041356
81.7020058673081
82.0909222365397
82.4772422049487
82.8802833235584
83.2661071355866
83.5470124007704
83.7332869360931
83.7707689092197
83.6295447144588
83.2832701025853
82.655563767588
81.8060752933973
80.9736096466953
80.3864907245372
80.085394045243
79.9927074669702
80.0243000015718
80.1019970232378
80.1697075837408
80.2129128252832
80.1602025614194
79.8958476336024
79.2467789558794
77.9658277908798
75.9359977631399
73.3061211785213
70.4509646350236
68.0633022861852
66.9654071051057
67.5510202825296
69.3763977475693
71.6023210123504
73.6647934175987
75.3244313138689
76.5933074761646
77.5108802784622
78.0861122336532
78.3777685379899
78.5107967594405
78.5734694333299
78.5539004186866
78.5186045499901
78.5030531350787
78.4809690255792
78.6073413344631
78.8696742382403
79.1044243713787
79.4255198658538
79.8960980486462
80.3310037242322
80.6714400685223
81.0311903078072
81.3079396270307
81.4332688969554
81.5706852215371
81.7278329881641
81.7785048576546
81.7813064878365
81.8000263093641
81.8438713769291
81.9002627185712
81.9051764976443
81.8879409338934
81.8364396149946
81.8940338615964
82.1706115607234
82.5123923264314
82.7786356558942
82.138068496249
80.2616257621839
78.7399986131429
78.7977657910972
80.0618455913302
81.7274194027585
83.3625408219685
84.7342631042788
85.780585991274
86.645639969051
87.2874560196023
87.7363812267934
88.091764316625
88.4692728274029
88.9367244158492
89.5756172396317
90.2936820371556
90.9362868372827
91.471004626091
91.8807061693149
92.2274367513403
92.563054252536
92.9143710362468
93.2222000069031
93.357748242653
93.3424504995766
93.1562656096448
92.8294720299909
92.2010164870034
91.0124598467416
88.6369724034153
84.3333449703994
78.2339777976236
71.2236603480178
64.3507003272401
57.9831184960571
51.7227074918341
45.4839019281329
39.8988756136464
36.16095883509
35.3077422502119
37.0376552559941
40.4885471986457
44.9298013069304
49.6128060839993
53.5458812967879
56.2774092264376
58.0469629840508
59.3742655434171
60.5657058924074
62.0526771656798
63.7220618573951
65.2859225790453
66.9114007309258
68.7044115326744
70.2053316941952
71.2692187187883
72.0521118565463
72.8531618401092
73.6852073646968
74.2187259358938
74.3741823786993
74.3408417670108
74.353618775229
74.8608516866368
75.4838020372736
76.0088088694683
76.7834924105724
77.1817106861927
77.0841027662042
78.6009573568846
79.3069416802772
79.0521805566202
79.0147691374862
79.0973916963048
79.5154123119813
79.9496884027995
80.3139913314601
80.4028323860822
80.4154433009156
