1798
3999.43349933624
650.420452594757
1
128
4
101.411016726295
101.430788920233
101.414061828553
101.392979984708
101.410173456968
101.456469926699
101.4838044187
101.479380362808
101.601943817175
101.565054348179
101.43230302112
101.327343919947
101.389148405134
101.423974142315
101.453531500556
101.390551585627
101.360564483731
101.451736291626
101.552613062386
101.425157126988
101.278249341435
101.242614342886
101.307822959127
101.366332457386
101.413013661727
101.371109525706
101.375490882544
101.293322107691
101.268955629249
101.34485709382
101.331069393188
101.345993739593
101.408906089376
101.379775044151
101.35516034505
101.168511090954
101.23325087627
101.254908347462
101.230339109593
101.223050668747
101.270373959776
101.387796489102
101.290931989664
101.24357190223
101.16221585636
101.302127510728
101.412028487261
101.46877066824
101.408523271705
101.40819376059
101.195722750674
100.729687744911
100.870256596997
100.969292483372
101.172623935623
101.188188290236
101.153014290886
101.215578635718
101.074698745036
101.428304478655
101.313133858367
100.927927063759
101.138071188573
101.102996772473
100.995654568852
101.128744273115
101.113606526859
100.853114163357
101.244740771426
100.734265538807
101.042348956551
101.147585838307
101.142484183362
101.144823196269
101.110428686146
101.005283611143
101.143375025369
101.254390035263
100.67228694833
100.880501901011
101.066904866367
101.220837283874
101.301996114856
101.192480171602
101.090766229052
101.079582556786
101.135756143447
101.053912125353
100.959014662714
101.037167745926
101.059527865492
101.343691974629
101.092684110109
100.973998131422
101.214892331503
100.830542708635
100.867646757794
101.280004767842
100.871953027829
101.140271912009
101.099858495105
101.201936398588
101.337592477744
100.911779856895
101.148184113029
101.321486338771
100.83029218604
101.050144778085
100.987052760448
101.053398037967
101.130034564057
101.174770210941
101.244213759082
101.314347560697
101.203068815541
101.010016853902
101.162897080421
101.21289975325
101.141471985715
101.386904173215
101.301974714603
101.257320694541
101.132635817256
101.133666363687
101.33563526965
101.030246928524
101.121931501005
101.269738351687
101.129387510293
101.109997084229
101.063790888346
101.2016741069
101.067036491215
100.975768345237
100.461624446113
101.299419880403
100.686413954249
100.758702142506
100.925634775878
100.846304430104
100.788867312947
100.678333588671
100.861399039531
100.725301464074
101.057997138655
101.3455032796
101.050875843209
101.020385432077
100.947907769974
101.043030683193
101.026083205467
101.017132112889
101.334408426563
101.373094533727
101.11726571389
100.962050798918
100.952040509661
101.062123132576
101.136775005015
101.082864702809
101.195695965732
101.304344965221
101.16694119432
101.217281203599
101.084125848353
101.008191966181
100.823534819653
100.883058154338
101.082243436589
101.128724619522
101.27953256115
100.990299130308
101.158704018789
100.635092093315
100.725311286273
101.052712710929
100.761922707926
100.68441267784
100.793986232807
100.875469713533
100.995592733227
100.951877013254
101.07203892018
101.101689272169
100.783992789181
101.043844231121
100.852751498175
100.557388400907
100.522395686981
100.60079007253
100.718057955923
100.683678858578
100.811434595333
100.753889560863
100.883724863354
100.883852997115
100.596567046294
100.753063855615
100.362227146258
100.465483187651
100.603949037336
100.726199960518
100.752480639289
100.53675767356
100.403997154533
100.545587918102
100.580635565323
100.679681095224
100.822956391934
100.663009345073
100.616989884419
100.554923778206
100.588117016302
100.618580419701
100.529343280216
100.558691394651
100.49888887611
100.468917463885
100.496410903676
100.44112440745
100.384744606621
100.613255974836
100.622584099838
100.524698007333
100.639035988802
100.658962112753
100.476583513566
100.370195157456
100.454380043262
100.61473378101
100.671041510748
100.315828008182
100.109869608661
100.230128177333
100.223184095782
100.212234688743
100.337401296988
100.447897107118
100.405483699852
100.259935285447
100.261453195308
100.364362242285
100.281254839915
100.117047211643
100.077809164034
100.178295809789
100.239064178705
100.282540417198
100.24696187804
100.277535945929
100.274873834267
100.237749705444
100.126138211559
100.120858138307
100.231272884784
100.244000903979
100.261774631826
100.269812306751
100.206320044266
100.241122976316
100.178962300384
100.100247455562
100.077812851894
100.085994902465
100.082419663552
100.084808772344
100.057711638057
100.113996089453
100.118222574989
100.048591233634
99.9971227414406
99.9026727604471
99.9133975502214
100.083072198633
100.133815853065
100.108506045902
100.207626160176
100.202130320749
99.9935898417937
100.003779156254
100.07361917751
99.9831029274226
99.8667840117418
99.7641796992052
99.7402628166783
99.9184627183472
100.043124026859
99.9874127997567
99.8578076855792
99.7593496205141
99.7665490905901
99.7957364685198
99.8412167674213
99.7908475201831
99.713766513229
99.7655329418492
99.7683584753102
99.7150657011935
99.6155388623641
99.6170459912246
99.5049365241537
99.3651732365582
99.3884131601718
99.4014280626547
99.3616050541398
99.4211529867259
99.4705263023949
99.4256403073088
99.2621552125621
99.2767260379205
99.3924307074201
99.4147594264638
99.2978651267924
99.297727364357
99.402955925569
99.4371497616942
99.5282230830852
99.5524771341141
99.3090609283858
99.2226301297271
99.3610746117872
99.4259330295005
99.4798391632142
99.6335906690901
99.5960184810557
99.4662495025313
99.5049902857767
99.5383536879394
99.5314518924473
99.585234820824
99.6644661553939
99.5559108041222
99.3984574988491
99.4795906465399
99.5027216196429
99.3544753770659
99.327601160939
99.4398190633166
99.436772521997
99.4213106146508
99.4204015228045
99.4271903494893
99.3733935165753
99.3748739921978
99.4605809724061
99.374505123605
99.2665091527424
99.2889879339653
99.3596200070979
99.4469923482097
99.3092876806674
99.152922520629
99.2159802890417
99.2728925167454
99.2437664212477
99.3361364705072
99.4677133205781
99.4143905801735
99.1830324147458
99.1295965224771
99.2240165173232
99.2285232699361
99.1855570851412
99.2004066286858
99.2279834070332
99.2183365180877
99.2614603766518
99.2642784136139
99.1658020814306
99.0581801384553
99.0829065222414
99.2491477181615
99.3218111049496
99.2763973797403
99.1426627305164
99.125386051337
99.2127561540001
99.1806511498911
99.1148043897188
99.1372595931382
99.1773103447518
99.1896201549061
99.1221283011481
98.9578197330815
98.9338082452825
99.0689034987045
99.0687036811145
99.0134971481078
99.0011560213407
99.07155372499
99.1763918759856
99.1934402813746
99.1238506893551
99.1102203105614
99.1355954457079
99.1432429393579
99.1947420327911
99.2455125516336
99.226040689436
99.1607751455347
99.1684917350572
99.2429539071561
99.274432620723
99.3475301818139
99.3409760432265
99.2247122902283
99.1390589569927
99.1628258087742
99.2240491505753
99.2154246562907
99.1726955307868
99.1828598708799
99.2288224120433
99.294192204588
99.267273359438
99.2122964405364
99.2173850689447
99.2271479905823
99.2241002883535
99.2613727942399
99.2525079989187
99.2487349745574
99.2880610318877
99.376006550477
99.4261212262463
99.313895652021
99.1442268672655
99.1027961505928
99.2057347288357
99.2958756693137
99.3554434511714
99.3792816443552
99.4029804383019
99.430183982999
99.4617280608015
99.4370070987967
99.392405942793
99.4039206079274
99.4145478535372
99.4976765158147
99.5154875806793
99.4111429514337
99.3557328250933
99.4704484871405
99.5703934430746
99.4999550706612
99.4224628312491
99.4817831864602
99.5525541818214
99.5618108107134
99.5888880466049
99.566535445451
99.5259428395354
99.5390527695855
99.5179643255467
99.5000668875268
99.5109415543476
99.5081514910599
99.5186767018174
99.4952603152922
99.5321334403725
99.567330854824
99.5159931532326
99.4621231352033
99.5345457991764
99.6055643857271
99.4802758800481
99.372292116779
99.4040191937861
99.3905378579554
99.4738256149463
99.6071068215793
99.6159759082079
99.5529746166774
99.517841163295
99.4741793495783
99.5050851345269
99.5151410795311
99.4998208455594
99.4186115019752
99.3357771477576
99.3663662803155
99.4106732531185
99.4344467408153
99.4945551851863
99.5550267188532
99.4991185660268
99.4292032618465
99.3424092696161
99.2802793804991
99.3402887743033
99.4230421302613
99.3481150437465
99.21995939651
99.3041795730849
99.3965941348718
99.3191785198889
99.2696893120926
99.2665103082894
99.2260300669586
99.180695462379
99.2440649409098
99.3754533665104
99.3569140604673
99.2249652126572
99.1734612297398
99.2027817343341
99.268180289085
99.3230497774239
99.3396799236248
99.4112753483022
99.4905452547149
99.6050955794229
99.6307754512284
99.5544517318879
99.5885908240149
99.6307168947836
99.6031472465928
99.5494911089654
99.575607359932
99.6337104488661
99.6333005982612
99.5785471841391
99.5456329766835
99.5202785155313
99.57406159984
99.5740108620204
99.5030685890365
99.4375781475223
99.3932038427471
99.3858630427339
99.3080289089204
99.2085288911811
99.2163702510884
99.2310643413008
99.1557990463975
99.1028335696197
99.0702278646462
98.9915657616345
98.9449376708008
98.9106671734001
98.8409487011438
98.7507002897254
98.6665507088359
98.554710433853
98.43941355275
98.3669751308071
98.2471725669999
98.0441461348789
97.9517777067232
97.7897995587645
97.5143515045148
97.2479673409373
97.010151526824
96.7400096842181
96.5003752066888
96.3632460311119
96.2195610403877
96.0121632308378
95.8191037288705
95.6495569611071
95.5266255425364
95.4843797751087
95.4337318315188
95.3165775211904
95.1640688879522
94.9851360809658
94.8360876136619
94.5872732499508
94.3158191019713
94.1448396360058
93.9140421787392
93.5927314724817
93.2668535924518
93.0475464322614
92.8992945692651
92.8215267797448
92.8488119800627
92.9346579128261
93.1074910170499
93.3061566283806
93.6081822893925
93.9810350738543
94.2801148384187
94.4822715779808
94.7009530931408
94.9306987925806
95.18071095869
95.3702292835087
95.5535610500222
95.6617411935671
95.668160213481
95.7319248403206
95.7930946381773
95.8645053832891
96.0294784295481
96.2004997704729
96.320169733856
96.4254237288629
96.5738540078128
96.674430526654
96.7992269865838
96.9191231500361
96.8465037842985
96.7188375240449
96.6846682059078
96.6143421692078
96.5014758537466
96.3886366552701
96.2123152629616
95.9553568921833
95.7038270859555
95.4025092637713
95.1002232839058
94.9689820721799
95.0643898478599
95.2611484177229
95.5237303076837
95.8538251980173
96.3041650642016
96.7603930851811
97.1125907484927
97.4621180015382
97.7800303526852
97.999858039769
98.1113242889623
98.2040449427882
98.3241992636049
98.4428903834383
98.553057629525
98.6382111448457
98.6833925254983
98.6990962829277
98.734379712434
98.7930954013946
98.8465054801366
98.873611282688
98.8956459668713
98.92487268982
98.9611210358661
98.9626043797047
98.9742573272964
99.0022450390767
99.0431532715465
99.0877223776755
99.1151576696233
99.1323990195126
99.1743332246677
99.192426516246
99.1774758395687
99.2019779510229
99.2506927619563
99.2019833017535
99.2208064568138
99.2848028340587
99.2946245575607
99.2918774194496
99.3167427687725
99.3444940042113
99.3441879085909
99.324241570875
99.350800631466
99.3656370701047
99.3344101591288
99.3279436017769
99.3721562076481
99.4007749416562
99.3949877746888
99.3727684801868
99.3422900198675
99.3558702388306
99.3823291101599
99.3716854590129
99.3961985109258
99.4481705277798
99.4492010226162
99.4399639990087
99.464569417695
99.4871288328175
99.4654108022959
99.4694481763178
99.5340520731188
99.5526810637973
99.5164833786972
99.4772809518549
99.4501099861147
99.4591542972528
99.4815274306698
99.5064343988104
99.5633340311469
99.604240093194
99.6007607000229
99.582149996748
99.6010125031274
99.5540952112066
99.5550219667406
99.6040715389376
99.5963747160265
99.609663554396
99.6132835982454
99.579063348312
99.5961431314754
99.625716907124
99.6273936565764
99.6003368952299
99.5833354888197
99.6022548557577
99.6431872973136
99.6342494881828
99.5865508113011
99.6068669095933
99.5796826235889
99.5431828419956
99.5898071550496
99.6083344074455
99.5709865456213
99.5756981791453
99.5599686407498
99.5432891164102
99.5534551384516
99.5522748785193
99.6289129992717
99.6635354116991
99.5983674018241
99.578609579725
99.6155913740756
99.5937138410619
99.5958979879476
99.5977624886656
99.6122449891562
99.6506140156197
99.6880957656327
99.7096344678809
99.67037706193
99.6406358782376
99.6765679425864
99.7521724285541
99.7196158608807
99.6535658262295
99.7175091191291
99.7425529334072
99.7632908006465
99.8084265169389
99.7737868264083
99.7489633444343
99.8137692214904
99.8874765045683
99.8801347124816
99.8314002828459
99.836578507443
99.8734195611612
99.8599923940977
99.893277796962
99.9605377991475
99.9318715143504
99.9048959797443
99.8911589825848
99.8985965134467
99.8780043146088
99.879999960109
99.9051403842266
99.9001925027895
99.9295917554114
99.9395271608489
99.9993313408515
100.039245992746
99.8983969275594
99.8468420577844
99.8729851416607
99.9452626747888
99.9310663282335
99.9087420239789
99.9952966882977
100.059550059945
99.997982966143
99.9523863304629
99.9640690397907
100.032336781261
100.083290054547
99.9778864021975
99.8682255919983
99.8888794710533
99.9056681893218
99.956465787898
100.040347932488
100.05247321629
99.94746611017
99.9373661944939
99.8998681199042
99.9114373259794
99.9466745703669
99.9581663699033
99.9474375197146
99.9140181309569
99.8828625408114
99.9549459037887
99.9830591351608
99.958945803725
99.9875752533548
100.021485609048
100.030279136552
99.9870669199195
99.9228851707015
99.9253692211365
99.9724376126933
99.9997934623298
99.8996810500977
99.9515835839033
100.039810782885
100.055240243468
100.009622713053
99.9990217428923
100.036934868656
100.063326562986
100.066896439904
100.034239905684
100.009977052615
99.9904469109224
100.042093079581
100.06679147723
99.9983548515337
99.9442684870437
99.93309679767
99.9914749950126
99.9682157111526
99.9734506779948
99.9391863029058
100.027131905312
100.051153321167
100.014951367337
100.073123276492
100.019292642977
99.9498909732827
100.023301183033
100.042974908386
100.000629379762
99.9593380551386
100.006055106819
99.9921983432949
99.9010596569359
99.9586139122336
100.062115163688
100.042548230915
100.085874619657
100.067245019798
99.8920790711672
99.8120879233853
99.9159384633806
100.009077454647
99.969427559832
99.9498515713461
99.9856826732076
99.9577006047724
99.9007170023998
99.8525541990002
99.8415396183603
99.8373252712099
99.8053159119706
99.8242235905792
99.8899095050888
99.8402101061599
99.8108914697929
99.7387543408118
99.7277642829035
99.744206394022
99.7168788525539
99.7615649210753
99.8017248033642
99.7484095145495
99.7663180472738
99.8577903694865
99.8475411601956
99.9394292538975
100.282713966069
100.34599805854
100.041899711744
100.127881933751
100.234491024774
100.240827007011
100.255703950578
100.275258945306
100.209484166082
100.039726801019
100.009592224284
99.9646095242778
99.8264905746208
99.8334374293531
99.9523633906736
100.035777234621
100.046479058153
100.002136357117
99.963713832764
100.069635555671
100.180098534021
100.029868564688
99.9303607211065
100.006197092412
99.8668317180393
99.8005295158
99.8435326319726
99.8458769540303
99.8116351638819
99.7438632451683
99.7564382246819
99.8425455768092
100.001384532625
99.9604173979659
99.9377094218934
99.9000149452369
99.8740773668738
99.8790147381776
99.9677064297591
100.028050491884
100.030518928177
99.9231435396172
99.9121463394946
99.9656166883163
100.039194706926
100.053860039689
100.089005902389
100.111944494248
100.101498476293
100.029232508091
100.115697285053
100.177576462058
100.288444384696
100.370038731181
100.439940025426
100.382645474838
100.40000028673
100.40371571383
100.380670372888
100.466892138601
100.579682715636
100.589013869911
100.606164650274
100.646404398243
100.707896536387
100.573354882587
100.565834762052
100.533560934971
100.544917475714
100.504992252822
100.609955896878
100.638656280604
100.791235071309
100.875603612505
100.875695159518
100.883856717287
100.92081032163
100.98713548131
100.921503096512
100.705288826702
100.809986494068
100.67533595739
100.604202202441
100.854069392092
101.113652070975
101.068900142767
100.860753718051
100.760456752643
100.92922345843
100.91478621935
100.905828845475
101.079645573455
101.211086700196
101.132110395833
101.308550735947
101.070976222077
100.937539416739
101.282890363467
101.495647618107
101.459599279316
101.524325919554
101.627391022034
101.369842071218
100.847953277937
101.113187085477
101.412908030123
101.488112674972
101.59280448476
101.664175560058
101.424576067498
101.371839507088
101.341858189527
101.93736459349
102.113002057808
101.674485448011
101.029321781278
101.283260462728
101.454702433692
100.980046482379
100.369033811264
100.629714280479
100.935904306378
100.886205687982
100.682038548277
100.734835175571
100.75812748675
100.650675234883
100.404942134481
100.413948497411
100.419737552785
100.416734606698
100.396824087389
100.395808298924
100.289163131908
100.242808419106
100.18433900812
100.255318602731
100.231805586949
100.303679245253
100.319434620344
100.221381543187
100.073972057367
100.204678912008
100.214447448596
100.166511429688
100.227722744216
100.28870701971
100.244237703867
100.289575081433
100.250494249472
100.109855978073
100.037028647212
100.137058811069
100.09538153658
100.103733562281
100.098975371461
100.160916410207
100.284026029786
100.468759007752
100.475365780675
100.506907741071
100.34986108298
100.428588357353
100.610926262089
100.692576829912
100.547084041306
100.479314511252
100.470185718507
100.389880935083
100.381554069189
100.801462317497
100.92035330616
100.697643882873
100.790672807982
101.261401141145
101.405495211441
101.647589080602
101.768089377836
101.454209535393
101.214103969778
101.544175126741
101.84326628671
101.801851263679
101.373762743395
101.441478722804
101.489172702046
101.148906227414
100.939260864881
100.978079201278
100.872336712975
100.923564999155
100.679312656077
100.547878347133
100.475701664137
100.844943173643
101.066254022166
101.345039999619
101.393769105739
101.046997468896
100.548970870736
100.501546566438
100.470519934307
100.572031021759
100.856690847758
100.78604720806
100.438225540527
100.661520872298
100.797275047609
100.744240338275
100.740118728429
101.079350681684
101.246765902251
101.19045004725
100.844674820016
100.739414397444
100.645256700316
100.776919842427
100.440196729929
100.387251968431
100.492246763129
100.514502043115
100.294742214508
100.408577195225
100.380181061145
100.197296263041
100.014747867743
100.041847767652
99.8396451975281
99.9654168036742
99.8810273352792
99.9998592004785
99.9824376193699
99.9316252925549
99.9691430818838
100.036495072357
99.9126008515077
99.852787280669
99.8246445860613
99.8444661882368
99.9518585097428
99.9503809979777
99.8301133170451
99.7344548122609
99.7626146967522
99.8234667713073
99.8527789413623
99.8735282757069
99.7627783220944
99.753258914181
99.694496871598
99.758292727117
99.8395441611257
99.902918546652
99.86283901843
99.8863368698103
99.8487337546448
99.9317636226691
99.8329555882205
99.7890224275786
99.6638564579449
99.6181413851743
99.7139729534917
99.7709859012275
99.8292037397831
99.9316741002914
99.8444229867785
99.826005000027
99.830486885776
99.7782899792852
99.7198241491677
99.6961200015468
99.6115873469507
99.7410680826125
99.7409373884945
99.7049222184671
99.634193250744
99.6789447019022
99.7265789185972
99.7647891031939
99.6425000359411
99.6156833235402
99.5888035433461
99.4028476590559
99.3355336582256
99.2061737350589
99.3276529647745
99.4546144439968
99.4158516776104
99.4425677826339
99.3917770055319
99.2513569446416
99.1438836969561
98.9882990018941
99.1005004579485
99.0920843414742
99.172866992792
99.245411841221
99.2125876527378
99.266106377363
99.2516419966165
99.1766244933084
99.0861151053672
99.0339533504451
99.0839164739297
99.1686865368392
99.1835919464703
99.073715573106
98.9650259018809
99.0304770181019
99.0260567730415
98.984918371115
98.9491344064452
98.808694256501
98.9204237031855
98.9924064308818
99.0099882089683
98.8825438507048
98.901075307735
98.7879935449825
98.8206292914572
98.7454257903195
98.6333183618885
98.536378982754
98.2872856815987
98.4607375944023
98.4504275938798
98.4795724814385
98.3727268203742
98.1506563080651
97.921414732787
97.9128608015217
97.6032561453718
97.4425948476245
96.9668385578152
96.2803940924766
95.6318229294499
94.9756885375211
94.0998534183254
92.8989514426383
91.4813272228481
89.565214614337
87.9159466479331
86.3980075852877
83.6836659923153
82.0114861119635
80.4058821028912
78.9023695308581
77.4009040277665
75.9551461691677
74.3972928481563
73.2071402399467
71.8664793983616
70.435720700618
69.7331374960397
69.413585846087
69.4895303008807
69.6729734760885
70.2952017898619
71.5716516118877
72.2040524403264
73.5474892245533
75.7832235220535
76.9376676416266
79.0177008092165
80.8202623893779
81.7021370816404
82.4400733947943
83.2535900597007
83.2239014168583
84.0871948711666
85.5957676600491
86.5619427144806
86.6697672422209
86.8094999213809
87.3981082622379
88.0580121013158
88.2280302893233
88.709782118749
89.6694980155783
90.0909256963042
90.1505614624433
90.6147137926179
91.2392565891166
91.6360375051665
91.3132600294388
90.7532810232522
91.5529810427893
92.7105341105172
92.6406920045267
92.338527902673
92.8673773843183
93.3958085957117
93.5193083823338
93.409176199753
93.1334462471235
93.2270556144198
93.7957233648317
94.2460148747423
94.1485794552618
94.1526563046834
94.1948693631426
94.3328700521274
94.4802334657373
94.6278199724952
94.5185158190626
94.2779319847298
94.1910620444054
94.4188294630605
94.4649691321078
94.5055328774242
94.7584592376248
95.0029489898746
95.2202796161771
95.3495235831944
95.5207913743304
95.6105370207109
95.6830445542754
95.7017292577021
95.7596220565842
95.7854203718293
95.8245360105574
95.7648158123334
95.6957797495658
95.3415083692667
94.8176705637774
94.0321165449871
93.4137144153431
93.3343068510301
93.9826584965678
94.5115286019913
94.7952170369707
95.1323311674545
95.5762646201653
95.8770107891989
95.8885308880123
95.7821947546119
95.4495435786717
95.3899081767942
95.9487435918222
96.1442085924603
96.156424496227
96.346770974491
96.3558778800583
96.4628098796971
96.1498287837464
95.9716711632127
95.9602427462381
96.2463538452411
96.4262482717649
96.5926342850964
96.4510157482896
96.4280805883124
96.5103894904801
96.4567318053218
96.4137533630195
96.2099330569701
96.3084711708094
96.2328569713537
96.4527366679404
96.4324357016537
96.4520435928135
96.5972597101426
96.2872841203889
95.6855322008236
94.5489515265616
93.3764057894098
93.6773096280055
94.5503608573635
95.461113803045
96.1649945901229
96.7909899755413
97.2049060290604
97.3391812703504
97.1321296037628
97.0628226231624
97.2693112620799
97.2940535754338
97.2551701982116
97.0444332825474
96.7399066131087
96.4214452654811
95.8412004880982
95.4830641950135
95.1515990463751
94.9764831115542
94.7304165149561
94.3161086489276
93.8879651625089
93.5512391892089
93.1965541848286
92.4988576853633
91.7858961801329
91.2589488561343
91.1796154971668
90.8986613007297
90.9328897375229
91.1870008449587
91.8005111652622
92.3602026718468
92.8535137023678
93.1206110316926
93.3530195483226
93.682520969371
94.3379789815763
94.9344207760602
95.3217999947256
95.7376625974517
96.0155230769241
96.1507910282987
96.0402416116871
95.9560615704832
95.6777800802546
94.8924303812682
94.1466785449477
92.776143918226
90.5536600112407
87.8729254095841
85.9787207074872
85.6034941427315
86.8191754067768
88.6124258171177
89.9844084781118
90.9354926217104
91.5954202502807
92.1029373092266
92.4885274972757
92.83294569482
92.9218340645153
92.9604430293361
93.107002802127
93.3766947919338
93.4328039052779
93.3067678188079
93.0123188457902
92.5668382439047
92.1267477677142
91.7885915479914
91.7520301264203
91.8501475821514
92.2507115751473
92.9163855603435
93.6498484658337
94.3914514688866
95.0707413747716
95.459226713339
95.6565778301853
95.7466295018954
95.811773782131
95.8070863723899
95.7011812646013
95.5164754416886
95.2532534591561
94.8189862952514
94.3279948807465
93.8906748856659
93.8589221176239
94.2470310225072
94.781357739871
95.2117060840022
95.4540072121133
95.5163834435261
95.4080806573022
95.1391603878273
94.7445820594252
94.3180241485377
93.8926606188545
93.4843190053668
93.1396959951296
92.8205517794002
92.5132607600535
92.1175027275349
91.593448069783
91.0482497946908
90.5064453248099
89.889359978529
89.1454381008399
88.1925375240635
87.0030981923133
85.7269127029964
84.5471349432043
83.4732151655279
82.5011746035063
81.5990744476473
80.7170842013248
79.7598444277058
78.7336512546506
77.6940570591867
76.691488427355
75.7196639617912
74.7680279257125
73.8128790546921
72.8580412913093
71.8981422549358
70.8856490272274
69.8348464422212
68.8322774371317
67.9674724167814
67.3586238907096
67.0542269274279
66.9262847719221
66.7707790697134
66.4628455031221
65.9859552493415
65.3602659071
64.6134265134753
63.8118987407115
63.0241491707676
62.3210081723072
61.7393710358559
61.3597906211253
61.2587410560676
61.4593196736417
61.941150110922
62.7199245914796
63.769280918331
65.014991581394
66.3342714710128
67.6173726443118
68.847777020889
70.0926845647072
71.3925762089736
72.7327573064122
74.0518091517928
75.3325761002096
76.5452151233834
77.6756579522453
78.7417455952177
79.7660732725963
80.7392505274033
81.6763635716261
82.6002386666468
83.4882050272273
84.3322090747914
85.188059696347
86.0222362097616
86.7970257786527
87.4804682782578
88.0111894019934
88.3241409757087
88.3910460302386
88.2151500776974
87.8683731089703
87.4798618485103
87.2329869467035
87.317656872284
87.8675904975042
88.7671783358746
89.6795307921147
90.3956695493309
90.9075882461057
91.2132588956182
91.3396645075874
91.2898012623474
91.0880741877863
90.7854993627956
90.4254364395481
89.9996039014624
89.4937043084567
88.8490963848011
88.0464138853107
87.1608817007213
86.2563826472011
85.3527977934674
84.4381022353211
83.4930338694079
82.5082799896528
81.4310194194416
80.2304995226127
78.8526731810296
77.2842289817538
75.6015298972646
73.9425601856238
72.4394500075192
71.2593556297511
70.5517961307788
70.4276929719349
70.8415887956225
71.3940949220969
71.4345844029637
70.6063386574214
69.1155024671218
67.4075201156971
65.7395209035302
64.250840257668
63.0094266657083
62.0251897783049
61.3163390498561
60.8822669588549
60.6583319170472
60.5895117340742
60.6042819004152
60.652108344547
60.7535630377056
61.0501617183379
61.6504017158291
62.5769173714937
63.7418345797123
65.0170161966159
66.3266763614844
67.607424471823
68.8270637234955
70.0101580463652
71.1337289618576
72.2131095915977
73.2275097945223
74.1459970925763
74.896622939864
75.4467677973854
75.775282319171
75.871621111361
75.7930620208396
75.6017023097642
75.347674003623
75.175467621957
75.1662815884102
75.3243177371674
75.6523403430961
76.126698530376
76.6669776290745
77.2150619046619
77.7647454841427
78.3568331686438
78.9106814295923
79.0379804802399
77.9230918922957
74.8768596467447
70.3793453599416
66.2069382826683
64.1837220473632
64.9130208132302
67.2720915569245
69.7567957843864
71.8573284738256
73.630004297617
75.1022687816063
76.2930803460016
77.2704702769484
78.1369788132909
78.8958363431075
79.5202648875047
80.0077069971703
80.3764335690487
80.630343754529
80.7933100996352
80.9158058102513
81.0378674758509
81.1225921745949
81.1123746242257
80.9583346568377
80.6696658549047
80.3222565633692
79.9936728160545
79.7366044247752
79.6142107106974
79.6104214551524
79.6769999283533
79.7034044416541
79.5972866517547
79.3009250471837
78.9398577782057
78.7851059293949
78.9182207869838
79.2165720391544
79.5509883380182
79.9021055224691
80.3510002080944
80.9307409875315
81.5990434500128
82.220213748945
82.7575428005384
83.2367712116
83.6674561880276
84.0454376774289
84.3704623927798
84.6306015167963
84.8729830751294
85.1162965183624
85.4030438240599
85.7269256456831
86.0461338923194
86.3568867571372
86.6337877033586
86.829097439804
86.9835801439336
87.0493401092331
86.9678213384547
86.714020094929
86.2590371015294
85.66490268752
85.107739484551
84.7187144265178
84.5290260813057
84.4672441887235
84.4592935597808
84.4989245867778
84.5881253054951
84.6181910068305
84.5425484623105
84.3429326836912
83.8450376994275
82.8408509930333
81.3084783938932
79.3468589090788
77.1822463368592
75.3270643682424
74.4684118549197
74.8625013174279
76.1722229918817
77.7957539729376
79.2693388191244
80.4312240238217
81.3250920006505
82.0025842352196
82.4377381179788
82.668977811421
82.8167585862637
82.8844997325464
82.8242968699428
82.7856357910973
82.8102487436855
82.8248308914394
82.9482504203252
83.1227566140874
83.3318204873341
83.6001436678563
83.9074111482389
84.2118384632057
84.5073193891803
84.7494724064025
84.9356467243105
85.0290682491804
85.1054812400398
85.2647627633129
85.3342545608142
85.29133034122
85.3226324662976
85.3703727849042
85.3766110400741
85.3666247912341
85.329172038425
85.3034239577157
85.3893283773407
85.5813023781007
85.8274179300182
85.9405512950415
85.3916622911338
84.0335071173973
82.946577413825
82.9939732544693
83.9347976631501
85.1650882267347
86.4144406337645
87.5504172711793
88.3465671212792
88.9203130160265
89.4288270749672
89.8206013015422
90.1478843140932
90.4663254131539
90.8180268679349
91.3817111525581
92.0511096296856
92.5965394625752
92.9706443954075
93.321045256229
93.6854331375891
93.9467047971604
94.2534625259934
94.5259223733248
94.5902848358905
94.5893692296824
94.544722491037
94.2566582951089
93.630891646269
92.5106746131607
90.5211930671422
87.290761766254
82.6889452048992
77.279171688348
71.900851942341
66.8409100628975
61.9645487310512
57.04322192702
52.4380040690219
49.2138571592341
48.3118926922104
49.3956576669407
51.7714594931531
55.0139839976596
58.5184566668238
61.4424723281056
63.5414115994316
64.9377792147275
66.0923553482331
67.0765594542476
68.0096365282463
69.247060924354
70.8162312871749
72.294561483738
73.5315431844848
74.573475671075
75.6183610044655
76.3562118974673
76.8139224731018
77.2022379285434
77.7008427330122
78.0117311927066
78.1930564777929
78.1442606376942
78.3899591312251
78.8920938401601
79.5042379980095
80.0188829098702
80.0620913311745
80.0363915043347
81.7404449706569
82.2536825171551
82.1034311884235
82.1831477859666
82.0202113688655
82.4049609286061
82.6100249456343
82.4812770069583
82.8586842306599
83.4247738125138
