1798
3999.43349933624
650.420452594757
1
128
4
99.7854842066325
99.8100585327556
99.8201827311501
99.7499508199223
99.7534702136943
99.8090839310518
99.8188141196309
99.8332449850177
99.8823518987747
99.836680538993
99.7919294648475
99.7388285601727
99.7899327732792
99.8281238413479
99.8077942905413
99.7356583421539
99.7412275445648
99.8710834580123
99.9595495582944
99.8343816021569
99.7442464923213
99.7990972039434
99.8181479767926
99.7332794376559
99.7529535792463
99.8127259208242
99.7745732142546
99.6846802633843
99.6789826219424
99.756651917966
99.7870781485162
99.8130787757365
99.8761060055358
99.8560967883814
99.7911364988104
99.6542104095019
99.7188866761131
99.7156295458374
99.6317881737986
99.72281707258
99.8246708996161
99.8086801768494
99.6669105955715
99.7086249041274
99.7011825961095
99.732048567571
99.8098101167749
99.8978131568071
99.8364427401004
99.7549178411955
99.6055857484306
99.3451870939519
99.5310472353315
99.7096835534028
99.7605992202964
99.7013901319429
99.689795257742
99.7068189974315
99.6280534208914
99.8790278071469
99.839319407633
99.5878011288972
99.6481934879857
99.6955897644747
99.7515334551325
99.7264381507099
99.6220924965931
99.4848037876338
99.7004653079065
99.387643061537
99.5797934686359
99.7650807134802
99.7838250350275
99.7410505361788
99.6869219084597
99.6875904991169
99.7715905214329
99.8049989288652
99.4676699858768
99.5770854757689
99.7111905501504
99.8537085206166
99.8890066124551
99.7837153297181
99.7037300037471
99.6573203948418
99.6429343302516
99.6289065322736
99.6274564365681
99.7828598559007
99.7654171373547
99.8168116256441
99.6459177813142
99.5964957925298
99.7236221153861
99.4370244957092
99.3539700211852
99.6188462709399
99.5574523998238
99.835991275795
99.8237461354301
99.7847621047315
99.6957603898984
99.478063793572
99.7244395408384
99.8013048902511
99.4994528936436
99.6848655268084
99.6632830888991
99.6728084840864
99.7243219534547
99.6443676158235
99.5835531450013
99.6623926239392
99.6805294749848
99.5826604986954
99.674933891678
99.7365563639832
99.7062242406592
99.8486417752713
99.7970715462887
99.8047150764658
99.803171938124
99.750684208152
99.7789789525128
99.606147449342
99.7122376077205
99.8658944905724
99.8002420555478
99.7145048464883
99.6433714755797
99.8193627007095
99.7258209133153
99.7315617738005
99.4959305196927
99.9473457105363
99.6740926250633
99.7453514239394
99.8303998700067
99.6447249039277
99.4711692954116
99.4307318558317
99.6647183932998
99.6459413162635
99.8059722791319
99.8898508968703
99.6997461069539
99.6710130214804
99.5717145724419
99.5858655400449
99.5917084285837
99.5967968473018
99.7645809709182
99.7804793059541
99.5909851506694
99.5264071197376
99.6613412478149
99.7520324644921
99.6955527688986
99.5633097324939
99.6445587199205
99.7211005267891
99.6275409842569
99.6742912332015
99.5730092290991
99.5493854218233
99.521854659102
99.5124064517807
99.6464816004725
99.7041258024279
99.8170121958441
99.648310178838
99.7036000773902
99.4357382115334
99.4758422647165
99.5510779261844
99.3062381524355
99.2969121322797
99.3319230697128
99.3078430962664
99.3509715093356
99.3634573730602
99.4161560524396
99.4082381543993
99.217155346755
99.3806629933742
99.2772613270112
99.1000521472673
99.1041092438984
99.1874103579569
99.2789359381113
99.158116412845
99.0399972980116
98.9240744449457
99.0209465878338
99.0735135258523
98.9190320415771
99.0468133572251
98.7937031494097
98.8581413102002
99.0412744430159
99.0753874282229
99.0135725652318
98.8303913724971
98.6289436014064
98.6775251661025
98.8584698094538
98.8603052097541
98.7042694396694
98.6664290197734
98.7968215268414
98.7027953070939
98.7042375409873
98.7973728924757
98.7835761715348
98.8037960903545
98.7000117741767
98.5443716991644
98.5853782753808
98.6923771670129
98.7104966945365
98.7162890088399
98.6389767123093
98.4024453544247
98.3007956972386
98.4000904848944
98.3465807598544
98.2519624837439
98.3410076539984
98.428111276326
98.4596917756051
98.2858402524175
98.1182837713719
98.1883660777551
98.2134347947548
98.1598701964855
98.1872134002305
98.1837914647301
98.0296954187541
97.9533707813281
98.0751451923707
98.071882757175
97.9397344805508
97.8632454703743
97.7611335654198
97.8139764819768
97.8363228427463
97.7168225487715
97.580443415638
97.576447748512
97.6963419902078
97.8147847253467
97.7072906195696
97.6788880301384
97.7260646655326
97.5705367298111
97.4867697461739
97.4844804141054
97.5676939467646
97.7795321959393
97.6856695622303
97.5083388226887
97.531936339623
97.5399080948727
97.4811588891494
97.432205951893
97.3063863230949
97.2061527878779
97.3082502935908
97.454426138362
97.3697004212708
97.2223715298838
97.2084623161866
97.2480579567917
97.2491537663969
97.3333109859747
97.4479501534843
97.3791672242547
97.2348020645053
97.25006612644
97.3127437158453
97.2146944393885
97.0036484288162
96.9355137947534
96.9932997595912
97.1212033868775
97.24527176101
97.1443824446262
96.9436455269031
96.9140419739462
96.9562494893932
96.9461495648469
96.9517734142836
96.8921641554004
96.7851910942781
96.77598612913
96.7554391319865
96.6823570804743
96.6064089920692
96.5741101004752
96.3224889939921
96.1446686361446
96.2924820789265
96.432708693018
96.3362039965309
96.3056148087266
96.4931908283485
96.579969717255
96.4662099110632
96.3452602990582
96.29585551673
96.3061027895499
96.2841094085572
96.2528769900428
96.2125290073715
96.2884563308228
96.4575902403006
96.4630772896351
96.2471073167248
96.131230302378
96.1812314304835
96.310007905999
96.4858784427601
96.5796477292159
96.4121612325547
96.2640616207587
96.4168691002848
96.5072396305536
96.4427510311432
96.3690975494815
96.3729331724339
96.3195734425392
96.2291656744649
96.2825865845104
96.3224914017133
96.3213093721545
96.3563581570065
96.3749785428809
96.3637354398664
96.3721577691109
96.3004210515402
96.2138881296854
96.1279165136657
96.1789741078408
96.3481972610827
96.3308372113369
96.250183742222
96.2332149884126
96.1675679567498
96.1236282651206
96.1103211374551
96.1223471645253
96.1862675597459
96.3053871277582
96.2577076963558
96.1759640914562
96.2554589327416
96.3152561666384
96.1518732925221
96.0423079890861
96.1665606550862
96.2081908932105
96.1547987779615
96.1909462633304
96.2056264313385
96.178837676998
96.1165626211926
96.0574911832215
96.0777999681639
96.0944194378383
96.1275217473519
96.2092748327313
96.253913026628
96.2005832134326
96.0647634880207
96.0853198463628
96.1891474764878
96.1363275583297
96.0674825917013
96.0166730516566
95.9873866423314
96.0661424874909
96.1164395109014
96.0437068459808
95.9949259699857
96.0586488102786
96.115212013958
96.0898230954162
96.0604313206365
96.101166335512
96.1744938270114
96.1973643312389
96.1119998998142
96.0702394633648
96.1987312500092
96.3194345465901
96.3033881602424
96.2786677744104
96.2536402801452
96.3194335823916
96.3764480289419
96.2545882418184
96.2227726496657
96.2930468143319
96.2955821112348
96.395859896079
96.4653241679252
96.42004827782
96.4299590619708
96.4222862640197
96.3950526577365
96.4163135855221
96.4328656126342
96.5345893703881
96.6028445512969
96.5114462755264
96.457307605397
96.4760297653428
96.5076891716557
96.525426381041
96.4468279715707
96.4628990104974
96.5691601295737
96.6109296634003
96.6096331327412
96.5471652343575
96.5057017316923
96.5385768018691
96.6454278617555
96.7106600104266
96.7763771095283
96.8386083052091
96.801882320029
96.7946268168535
96.8118617612609
96.8501683458121
96.877452458893
96.8785994902316
96.929338403352
97.0044734947726
96.9577173771466
96.8895095126712
96.9334426249091
96.9730026209676
96.9356063275412
96.9031261917423
96.9405618919301
97.0858202326339
97.1653500243108
97.1244293589946
97.087782604899
97.0403313720554
97.0720880022163
97.1556874717557
97.1670902302816
97.1780002942706
97.1857231687505
97.1491604726004
97.1547753853049
97.1620439164704
97.2351765226424
97.3015094149808
97.2524752605853
97.1816101737245
97.2824593995296
97.3083166207414
97.1588177577983
97.1294551703435
97.1633802439869
97.1446499663154
97.1621935579916
97.2763945834226
97.3321363901503
97.3263533866354
97.3104096854229
97.2722595608044
97.3379288052775
97.3648257252345
97.3418483808771
97.2720078530946
97.2006791933062
97.2226271352698
97.2324001395514
97.1976956104731
97.2203619795256
97.3379368319712
97.3069387872475
97.2431295596851
97.1900512426151
97.1783750991539
97.2201995490182
97.1881921715803
97.1500444484417
97.1404445724696
97.1897300746221
97.2665444626451
97.2362123072263
97.1368716013525
97.0806723977727
97.1071306174291
97.1576678333054
97.1768273646958
97.2149845887302
97.1880256160651
97.1424733763653
97.1554684476553
97.210135127022
97.2314187849005
97.2357954218279
97.2259578083081
97.2844235328439
97.4123942818241
97.46767206277
97.4908013619549
97.5096879932444
97.5359409548014
97.6206939290301
97.6501968595744
97.6386866227498
97.6267016957161
97.6302781129556
97.6028969613669
97.5596795958223
97.5635340766616
97.6010534776407
97.6005929934186
97.5824433240972
97.6437108708513
97.6187315966874
97.4516580168302
97.3379945510837
97.2788327284135
97.2576215110156
97.2842836319898
97.280437989567
97.1797162101208
97.0951249118918
97.0822992571798
97.0408004397419
96.9735288314544
96.8918152287293
96.8237592816337
96.7444016394962
96.6258062224815
96.5151113704027
96.3909232711184
96.2078789031883
95.9987395049563
95.7951763801481
95.6505539372468
95.4845572068341
95.2485452090493
94.9261429721515
94.5941399881878
94.2467118610485
93.9022826896154
93.6371154935807
93.3617181984551
93.0670229981285
92.8611153999273
92.6897839909033
92.5545341592273
92.4378352668512
92.3238164221275
92.2385964391641
92.0982044421965
91.9010489910751
91.7471338390091
91.4705545714626
91.1142128853577
90.7659833683629
90.3867500469816
89.9434814275661
89.4342676271308
88.9721413800952
88.636993111056
88.4056436166222
88.2911491967254
88.3288312054843
88.4684910174359
88.7029987092068
89.1582515173418
89.6935511290863
90.141485972987
90.5610854758107
90.9989889519583
91.3473076602955
91.6770293953709
91.9879331525409
92.1886511914976
92.3543496711931
92.4957990074442
92.6205937054488
92.6942558843462
92.855914319666
93.1055213556083
93.2358716832982
93.3452239799846
93.5458388772504
93.7649039778036
93.9318644717906
94.0817919740998
94.1714111339912
94.0968692840805
94.0201983244509
94.0161380103584
93.9549655799983
93.8658462928567
93.765550965688
93.5229861749234
93.1555750295601
92.7973577524717
92.3706890695633
91.8376678844489
91.4833691998298
91.3852857647139
91.4665235041628
91.8296988480797
92.4014857503484
93.0608419237113
93.7056928912406
94.3007653562861
94.8129786775224
95.2121264349034
95.554412529728
95.7578743527623
95.9323327865913
96.1629364973984
96.3407976429903
96.4482632055238
96.555177620225
96.6340288139702
96.6944720310435
96.7580797819268
96.8401140821184
96.9258366567453
96.9722075095826
97.0020562636619
97.0308402221459
97.0314841908488
97.0816834074124
97.1665942606335
97.204684532717
97.2282719924402
97.2885253469538
97.3193943316594
97.3332967372042
97.3896664519318
97.4387938936157
97.4446631176105
97.4348372098175
97.4534876607653
97.4672847525134
97.532611683689
97.5784161743915
97.5798854582742
97.5751869223731
97.601070585643
97.6092230826351
97.6255548427855
97.6532129642029
97.6736558700744
97.7032496711145
97.7234941521982
97.7247551346387
97.6890586720497
97.6456576143253
97.6693990032015
97.6923543857643
97.7108412758219
97.7305734934468
97.7265250626189
97.750327647547
97.8201347940648
97.8579237019672
97.8534789033883
97.8381908552159
97.857267788354
97.8450323352839
97.7981538760894
97.8377162451297
97.91713414011
97.8987001117137
97.8525039901623
97.8577473742715
97.8728143839218
97.8979566233178
97.9392878259259
97.9293383949738
97.9588403559314
98.0316408262206
98.0154552308886
97.9864648848272
97.9997433555811
97.9714081255346
97.9859731219634
98.0321046836229
98.0460757402571
98.0502435445917
98.024138799529
98.0048984233016
98.0321928107838
98.063937525408
98.0459198089537
98.0118165894831
97.9929844107643
98.0407552967455
98.0889989651182
98.142417433712
98.1162848442246
98.0755034311019
98.0322938157419
97.9841038628184
98.01797752554
98.02889834494
98.0058379064848
97.9883415065482
97.980668402337
97.9992239521089
98.0270821582909
98.0306186068936
98.0978919448562
98.1223489781247
98.0835143523527
98.0825876320121
98.0883322616901
98.0850624144649
98.113581061566
98.0971705642792
98.1074850260341
98.1595920331306
98.1878297872694
98.1873192405481
98.1605147842036
98.162286957213
98.1820509349299
98.2374999600538
98.2536215956737
98.22841798406
98.2548641019604
98.2580844595795
98.251696836777
98.313553221434
98.3117572388157
98.3345312047527
98.3726205500718
98.3978813759542
98.3909462311391
98.3670476776136
98.4087407509403
98.4577188478082
98.4049038123892
98.3930970445473
98.4792018341319
98.4699591735949
98.4750656876971
98.541985032918
98.5741877478862
98.515519316724
98.449202325641
98.4025051897126
98.4220211339272
98.4414706857185
98.4004746398769
98.533103437726
98.6441951778185
98.5410860748084
98.4880568574636
98.5300540125582
98.6198168753368
98.5505742176967
98.4959793376132
98.5579584229361
98.5837201794758
98.6014206936547
98.6376722978048
98.6135770526869
98.6500648129391
98.673600577575
98.6187689109259
98.5760710989177
98.5918578143028
98.6004984873607
98.6575177301754
98.6739557040567
98.6379568474651
98.5886971955915
98.6594439622534
98.658386692643
98.6553604152531
98.6268097482744
98.5868574891813
98.5603004733837
98.5728474482068
98.6159141914412
98.6401724314601
98.6544344246991
98.6715986953464
98.6705012241696
98.6971659307449
98.6713414739549
98.6621146978008
98.6674096390409
98.5994220423883
98.5888261016886
98.7142364936077
98.6405787409449
98.6868828307462
98.7952465428231
98.8027621698167
98.7001851445373
98.6756302812606
98.6410808706365
98.6266556144441
98.7146640229622
98.6927795140841
98.6432543306261
98.6739564371758
98.6783252499729
98.6768876134646
98.6828483081675
98.6683881762429
98.6491316846065
98.7060032871767
98.7636477000837
98.768981926515
98.7075430254796
98.7748745584047
98.7618348319718
98.6703766332585
98.7005802066486
98.7627689939748
98.7245586325181
98.7517425425144
98.7637145037348
98.7727342295161
98.7537498141184
98.7360740073426
98.717135349565
98.7070696818293
98.7372622329472
98.7739563209391
98.697131112463
98.7086363475921
98.7772548384806
98.7126886570976
98.6191260322448
98.645755831653
98.6138049138976
98.599908812377
98.5934440872015
98.6416281289772
98.6949930154759
98.6648121512912
98.5954551178203
98.5722147488193
98.5631574876263
98.5666067421002
98.623660191941
98.6602555059569
98.5942810710473
98.561468389642
98.4723646179455
98.4536733010993
98.5580056934553
98.578370848691
98.5773288461442
98.5595958307054
98.4922968750539
98.4696601714535
98.5125374129438
98.5351065702393
98.6326495617789
98.9040984493737
98.9373419985772
98.7548304403827
98.8048141295579
98.8890326291782
98.8956156744098
98.8806470239126
98.9564165511161
98.9818932149704
98.8294502189408
98.7586432058345
98.7386918866517
98.641530556466
98.5926288401191
98.6643583892862
98.7351364927369
98.6871615140637
98.6597244916443
98.7363184847084
98.7924087207096
98.8031085372661
98.7383155762563
98.7330409340341
98.723802612339
98.5920102307531
98.5505145100583
98.5888926792231
98.5667160661261
98.5307724704229
98.5551367280628
98.5955445414678
98.6356392207489
98.78309582562
98.8107795196236
98.7971826943879
98.7443195381697
98.7267149744604
98.7155250131704
98.7726848323475
98.8206014896698
98.793251733451
98.7892774274226
98.7669421853015
98.7366017077366
98.804057346132
98.7762069340739
98.7997596556235
98.8883058655664
98.8924338898682
98.8596375628434
98.90893359947
99.0357232388976
99.170911961942
99.1417107469397
99.2181885793376
99.2190997678905
99.2147925150342
99.1735593774572
99.1988578377183
99.3011651328746
99.4794802358974
99.4866130200663
99.4198969785001
99.4782584794717
99.4844942073201
99.4042524316142
99.4726358161476
99.5108521774454
99.545058489304
99.4594599955189
99.3727076551056
99.466980124655
99.6102228406496
99.5348247896475
99.5998798032902
99.7275342253588
99.8938248729703
99.7997199940632
99.6159136706175
99.6168363780541
99.8318894813378
99.7058712272098
99.6114851159274
99.6777830362039
99.8134073462441
100.011710976112
100.046848972343
99.9039575225375
99.9093416304213
99.882923630811
99.8466479473741
99.9517456034456
100.154467844305
100.003482731208
100.093560474602
100.099304779408
100.130054279369
100.231304422862
100.190919156485
100.100145065517
100.184330633939
100.47424544123
100.663087244969
100.080290118041
99.8785322598291
100.325889791863
100.582540490726
100.557630766156
100.619462034602
100.439344309038
100.492558082852
100.299026337661
100.149300961263
99.905742828687
100.390912405388
100.444374363117
100.307002523103
100.218067385858
99.6393604763255
99.4647531082319
99.9851423553688
99.7556948554095
99.7659306876365
99.8195826971191
99.6755258781309
99.566463800066
99.3554265419063
99.1580278020256
99.2976441770891
99.3551157239848
99.3636402638117
99.3619881193607
99.2929659542536
99.2627869722582
99.1890208031049
99.0569552458326
99.0419925715401
98.9477506199501
99.0936507794071
99.1571423001353
99.0794933064136
99.0791898685891
99.2682004718502
99.2755659037883
99.1231458922117
99.0248387820179
99.1413568627438
99.2281851259088
99.2904181431712
99.2332534921943
99.0508606958231
98.8709160929947
99.0359400693497
99.1395833909971
99.255075727876
99.2292229518886
99.2554960669645
99.4206290743652
99.4945267235351
99.2731842603514
99.2720098754584
99.2063434379565
99.2592948647183
99.4520325652716
99.6091692132912
99.4584160026646
99.3340081490281
99.2462261468847
99.4900188271345
99.6503688935698
99.6904265331858
99.5527888328598
99.3263595744431
99.4737412354897
100.109581553446
100.462306689219
100.578475936052
100.639119460961
100.62927530357
100.539166028607
100.602410718239
100.599044354973
100.762684000522
100.33503752954
100.191139277598
100.36076780374
100.018491359617
99.550698771657
99.7080381038545
99.9586028552818
99.9149685830069
99.2949080270238
98.9742255842921
99.4161349825047
100.023431246406
100.008303925766
100.07882188102
100.058423958804
99.7350003421828
99.5488884186956
99.6018717131012
99.5976582325659
99.8001940974637
99.9645886868841
100.022623244879
99.7430365984545
99.7943902879886
99.9881544307609
99.8833035275815
99.7278988359485
99.7103363057131
100.094690185845
100.218756757631
99.7151468394825
99.9092096534329
100.139799183383
100.188754616828
99.7974713271132
99.4913637889116
99.3854469589915
99.4683708753187
99.3308899815033
99.3855262076777
99.3330200017804
99.1478828316854
98.9879673522673
98.9875195101942
98.8502239301604
98.953808218081
98.7886794200763
98.8305429554182
99.1283805249032
99.1657556004832
98.9834412088174
99.0805507070153
99.0204395760203
98.8824845536631
98.8504564834508
98.9436801667251
98.9038735248695
98.8951346819047
98.8767010877454
98.83976424346
98.8316464135049
98.8819122115862
98.9794718942898
99.0937210389073
98.9646276049496
98.8496809611136
98.8150138079967
98.9222167160673
98.9150952560338
98.9421408827539
98.9647006334894
98.9908438981689
98.8928432886579
98.973090150747
99.0228655803706
98.9370996536184
98.7579211510494
98.8018806585515
98.8822808557778
98.9100933870779
98.9457618440499
99.0223436150989
98.9591247384849
98.9210952341682
98.8905812190338
98.9337534195207
98.9383429731033
98.9721582449156
98.8866353213954
98.8491824544772
98.8414814726471
98.8802910900175
98.830170722581
98.7846855695646
98.8140112825877
98.9191699268767
98.8623051394565
98.8095994710167
98.7625902418766
98.6807934713124
98.6159623562472
98.5193065999275
98.5411393928235
98.5831407393781
98.5779990774423
98.5792265256874
98.5000904407056
98.4768500113809
98.4407331429722
98.2719896235197
98.2695556875974
98.2510149282904
98.2715982442783
98.3317905612587
98.3276894259557
98.3511793902141
98.3316168438521
98.3417197979877
98.2986145368067
98.2539483363372
98.2989183215023
98.3575751664731
98.3455538551235
98.2937727319442
98.1977648238244
98.2339926283631
98.2318154641367
98.2177636230931
98.1907080795099
98.0790188440068
98.111010706477
98.1402167918467
98.1281873258795
98.0641281546409
98.0591287885584
97.9757165660626
97.9915644435807
97.9591415372926
97.8712656552099
97.8239808365774
97.6513872234196
97.7103036360854
97.6210042193382
97.5902227157
97.50159617632
97.3508746796548
97.14892275837
97.0376288124861
96.7064176685182
96.5371119644555
96.0992421540158
95.4344581036115
94.7390882045037
94.0081102472281
93.0165123867271
91.7885323017291
90.2181475291627
88.0127530000378
86.1843330340137
84.5708118264113
81.6392682729651
79.4211294708459
77.2790767297245
75.2102996455434
73.252657134236
71.3592101612423
69.3894783120051
67.8326985606888
66.5168595464402
65.2061421897826
64.1466789703369
63.2318173659913
62.7319710879029
62.5121823347433
62.9854892645337
64.5725205934974
65.3717626506327
66.4063338557728
69.8359093513201
71.5122713268095
73.901462104691
76.2987807539797
77.317377014638
78.076364846202
79.0243136653941
78.8596533129522
79.648460624329
81.9961978181
83.129107604799
83.1935745160519
83.0007934807782
83.5584579257812
84.5428362292848
84.7004682249088
85.110025431348
86.285730733983
86.7670368942531
86.6204674455567
87.0839218552815
87.8861319251194
88.3084588860979
87.9474136344703
86.970735823682
87.8719163257905
89.7947164678828
89.726645870447
89.1272230843335
89.7096276222411
90.3823681405285
90.4392501234326
90.2900522465314
89.9355780445006
89.8954644484124
90.736866777568
91.347814772107
91.227641678497
91.0994155301272
91.211105080609
91.4118788250863
91.622921461746
91.8926867765537
91.8133858352241
91.5182414323996
91.5115441906794
91.6937839543579
91.6781037222587
91.6980596072561
91.9472994625835
92.2221930775397
92.4330576693336
92.5873500775828
92.7849773098652
92.9267706817657
92.997754757103
93.0530052226985
93.1500879348398
93.2122320951806
93.2536227177884
93.2025914365113
93.1247487776116
92.8159853406411
92.2318879790493
91.3648293543416
90.5306205179754
90.3499026955425
91.2110581648324
91.8338790363269
92.0279455362702
92.4623726646351
93.0624678656049
93.4053361441293
93.4886261757017
93.4057976130393
93.0851133985873
93.401419341976
93.9642985596921
94.0987513103376
94.0787144862673
94.1882857908785
94.2217528146658
94.2949762211876
94.1255459968653
94.0561644530935
94.0594130076978
94.3624178438078
94.6059195793223
94.6899672808935
94.538315131572
94.5374190305035
94.6238757526425
94.5716715153364
94.5508546255976
94.5167717680384
94.6260178255518
94.6642587907429
94.830225049892
94.8626463879219
94.9186257102891
95.0080670742894
94.8009808996482
94.334482998167
93.2922155869052
91.9066351511726
91.8147751608807
92.4641839188184
93.371804895686
94.2414480475504
95.0941245333809
95.6819037702215
95.8858753164633
95.8010786042058
95.785083977479
95.9444635697848
95.9484773912114
95.8624474566959
95.6447580272628
95.3591042379626
95.0212900357253
94.5010154707339
94.1016019454673
93.6640247967671
93.2626528464132
92.827105966743
92.294937854066
91.7878982186507
91.3744668109302
90.939481941861
90.2868864002119
89.6707357427106
89.1452398191912
88.7792872241395
88.3221057795958
88.1805028015789
88.4399808222698
89.1102306104799
89.7430592948937
90.2784624660282
90.628889725076
90.8296624201328
91.2712584562738
92.1558100136964
92.8088727948055
93.2477788468533
93.7409940343039
94.1055720432804
94.3042369010291
94.3277604155917
94.3294083387635
94.134647277725
93.4649215254596
92.610188688158
91.0369376193251
88.4262544078784
85.1692598449173
82.6623142676408
81.9180470467813
83.1340898005209
85.1899202451093
86.7310610045033
87.9187154317995
88.8901962656012
89.556313431738
90.05178612708
90.4154544058824
90.5247392561367
90.6182241352702
90.8710399677051
91.1410411299212
91.1799011139152
91.043880042183
90.7349863659714
90.2562725640915
89.7562581823726
89.3733491631836
89.2116761246739
89.1679570746672
89.5294810759856
90.2793024793302
91.1713133111734
92.1736396481644
93.0500165892869
93.5483483188906
93.821762938778
93.9724164354432
94.0711728906241
94.1399317639938
94.1124113734223
93.9480491944454
93.6726370763658
93.2595466846176
92.799184315157
92.4174901488297
92.3807318264384
92.6967024457233
93.1849849900276
93.6333761719865
93.8938883497651
93.9438638845208
93.809964396537
93.5138297526036
93.077596463136
92.5704335629637
92.0606142385594
91.5990441770513
91.200932994066
90.8305741801851
90.475979807481
90.0303486459373
89.4374722443063
88.7780656712328
88.1132611441769
87.4028168356213
86.54186142943
85.4060935994526
83.9867332364726
82.4418515535804
80.9653329704864
79.6285673562698
78.4296701434071
77.3170098230051
76.2106863518962
75.0525331971742
73.842587239945
72.5954564443091
71.3729476739051
70.1818305239285
69.009881766003
67.8591090320629
66.7035366194998
65.492160910184
64.1933129527236
62.8459633272763
61.5424129552136
60.4006682542682
59.5709620583245
59.1173223396614
58.9121808863549
58.7373368976328
58.3993704679634
57.826072743209
57.0385412525114
56.0839641721886
55.028918865214
53.9404263267891
52.9041029327531
52.022264649
51.4091166160262
51.1470651363098
51.278971072208
51.8392867435983
52.8316174521578
54.1698236369436
55.7797516478467
57.5443739688669
59.2492548377833
60.8427010663449
62.4445025623009
64.0922979760232
65.7624425644444
67.4082265092785
68.986533825567
70.464021111306
71.8502955451332
73.1616206528091
74.4006584208788
75.5821597228769
76.7186535224308
77.8280897708099
78.9026946623865
79.927844724753
80.968702924685
82.0048375883235
82.96117602631
83.8006566084472
84.4886872524797
84.9522712413168
85.1111287401595
84.9410641713465
84.5501342347527
84.1018794370266
83.7741462343843
83.7890095311757
84.3339545395046
85.3178670897928
86.397924920109
87.2992782663397
87.9513310181941
88.3815032194054
88.6190277999964
88.658361956565
88.5142641253606
88.2198922073081
87.8249027606225
87.3450689078115
86.7495000085303
85.9909162767817
85.0585247056695
84.0098158914979
82.9138145797466
81.8172073290627
80.7183313214743
79.5943868066976
78.4377621144459
77.1994823399149
75.8111441734558
74.1630073759049
72.2425558768737
70.1669703705176
68.0757868560633
66.1425528195114
64.591987111516
63.6303044991399
63.425259821064
63.9306396185031
64.6737887489661
64.8579602074377
63.9823997982675
62.2169172055889
60.0741438280042
57.9344696195579
55.9713423667755
54.2622417936823
52.8788095394819
51.8615904371794
51.2093864363181
50.8597436517771
50.7332258277005
50.720663063997
50.7581247088093
50.8797342221633
51.2394996761708
51.9724502800588
53.111873123286
54.5758832194368
56.2222530898597
57.8853805380209
59.4697063950391
60.9668149938439
62.4149539438623
63.8293379372089
65.1750050032297
66.4203784676342
67.5688930360286
68.5278488228079
69.214885383579
69.6264241951124
69.7550076147463
69.6156212459688
69.3167202034271
68.9791162480674
68.7105947788504
68.622679343975
68.7713071397004
69.1206884829201
69.6504438359481
70.2988633892736
71.0062661713013
71.7436823033559
72.5204201441616
73.3082932012565
73.7049112639827
72.7000727737618
69.2991104062926
63.8069828915098
58.2912049458906
55.2784576955692
55.8239126622455
58.60781792465
61.6816191396351
64.3349943742709
66.5812333072226
68.4283468493761
69.936537235064
71.2159553696918
72.3556558865335
73.3389064107068
74.1430349661054
74.7758532307842
75.2484593415038
75.605283215122
75.8411056785609
75.9797059201395
76.1478316968304
76.2923260566339
76.3158942541029
76.198350949602
75.9199228053775
75.5259750640244
75.1362742037695
74.8583511102404
74.7303235328161
74.7159546474578
74.752543044814
74.7690056999349
74.6625680675063
74.3176593595179
73.8687606095855
73.6445472308943
73.7750212658306
74.120406164509
74.505208789641
74.9126085530806
75.4338731172276
76.0956718529435
76.8603819140055
77.6207018882879
78.3171586780794
78.9408377169812
79.4602600870133
79.8811876752106
80.250258603708
80.5698186060566
80.881998920425
81.2018262481018
81.5498713478987
81.9258728648553
82.3124409176768
82.7149941883168
83.0785495331518
83.3432908893355
83.5410332927474
83.6477142689117
83.6030735430379
83.3569486915739
82.8476128050494
82.1215474330336
81.4176367611126
80.9075746443499
80.6406988231715
80.5551993798677
80.5391850443988
80.5713889542756
80.6592047944339
80.7245163299593
80.7274429656615
80.5597194513659
80.0211541410353
78.9410630258739
77.2238633858327
74.8802656771296
72.2689701455124
70.0188248148333
68.844928588516
69.1483435035097
70.6161936602034
72.5294871668036
74.3498910710601
75.809021491971
76.9451064396738
77.7814730958133
78.2814017142846
78.5656174457521
78.7088478847668
78.773463247529
78.7766679434213
78.7738951586244
78.8027243498658
78.791737544327
78.871566142103
79.0636443574099
79.2902127626199
79.5631475193941
79.9133161789229
80.2749812143303
80.620017783361
80.9530804889643
81.2075707298473
81.2720949072228
81.3130959403539
81.3760300296393
81.378474898531
81.3894379306744
81.4232676391206
81.4409272135144
81.4333446310896
81.3851755567668
81.3734774934978
81.3268483241327
81.3263865886887
81.525717266397
81.8434027464841
82.0783324928788
81.5416483377756
79.9244030504893
78.5056213391483
78.500173602801
79.6501345119075
81.1152932913369
82.5794865157067
83.8603340214934
84.8700547496007
85.700347330663
86.2793442967258
86.7146824523611
87.1419635368122
87.5118534243636
87.9441212059098
88.6007098872522
89.3269668072281
89.9925886085793
90.5678664119158
91.0178818707266
91.3541264569642
91.665373683732
92.1276756508577
92.5084337844004
92.6512078658489
92.6911663437527
92.6206770477342
92.4403522300437
91.9317742623953
90.7297226874561
88.5970506751583
84.8505340070259
79.2212188361812
72.7004738819456
66.3196403192016
60.1922514784387
54.0843818962343
48.0260987535796
42.3331024710186
38.1169575638301
36.6584645012331
37.7930737469943
40.8262425488503
45.0102642874726
49.4379897180452
53.1284056771427
55.7972982672446
57.540599446851
58.8565932677284
60.0825881648082
61.3349182158199
62.6516402539279
64.3016606976537
66.0149160365235
67.4496609332148
68.65119504039
69.7600900067918
70.7432056512282
71.5102616764554
72.1309450740929
72.5648707380316
72.8252869301363
72.9850893916434
72.9786088822739
73.3788302351622
73.8931644331733
74.5294031342134
75.3546962755083
75.5004247372436
75.5344400004919
77.2017677889595
77.5091589460086
77.1172986578309
77.3977203195655
77.7428801561544
77.8890331034782
77.7564858568507
77.9044513481823
78.3633007068844
78.5188636857428
