1798
3999.43349933624
650.420452594757
1
128
4
99.7358140936778
99.862494241745
99.9168742461479
99.7924381197812
99.7116290085088
99.7105231591638
99.7286882316008
99.7705860326299
99.7621985228886
99.7524464576554
99.8167776565175
99.8325779846489
99.8331778559119
99.8007271105434
99.740486805098
99.719797956737
99.737825081926
99.7259007902046
99.7334711514395
99.7825667018567
99.8337522559396
99.8642676256788
99.9076227033531
99.8951413534565
99.7993427138651
99.7129965222542
99.734299243673
99.7321664118878
99.6732643845676
99.5806684129999
99.649883365697
99.8125727075172
99.8319898004041
99.7809032888869
99.68671241669
99.5934923735131
99.6482021618853
99.7919841323445
99.8233432020231
99.7209223417947
99.8144814082504
99.7321430869274
99.6487159312934
99.7384541388242
99.7639046323758
99.7163613419918
99.802274232427
99.8678579732712
99.8226743171938
99.7721508173875
99.698510692206
99.7422047791853
99.8565948271735
99.9065812191447
99.9816581393429
99.8518058346165
99.6833429853038
99.6969164603506
99.7938478353092
99.7905594419927
99.8027447318158
99.7871809675366
99.5910349861802
99.6678391602946
99.8520846083789
99.7905004359615
99.6606510484226
99.7336187734998
99.7112557274657
99.7580276812443
99.840412892707
99.6939440209294
99.749195744451
99.7641949300508
99.9223144759451
99.8984859854247
99.7167212333088
99.4531534769761
99.7464230908432
99.8980491391925
99.8885848179848
99.8947165383453
99.907770256099
99.8363323941375
99.7115068404558
99.6621645121311
99.7029767786503
99.7299365700001
99.8072069956144
99.8562443672974
99.8953707001089
99.8774305134562
99.8876215865148
99.8171693556433
99.7028588398826
99.7182704706018
99.7879336075634
99.6937592266106
99.856657821901
99.9097082014173
99.8442669885158
99.7674129227163
99.6163868744907
99.7573705604538
99.805399731601
99.6798835117529
99.855755344514
99.849722903032
99.8142627050681
99.8916483873469
99.8668442359592
99.8772736110615
99.8986625655519
99.8582064908312
99.7692147990539
99.7949732097138
99.8044159754806
99.7327429191921
99.8238504792769
99.8366624731871
99.865580300136
99.8970868841611
99.8469747804693
99.7935215700378
99.6883828819437
99.7502716562977
99.868462472545
99.7547780121138
99.8205039852032
99.8159559449938
99.8742591850432
99.8515198946178
99.8100669359098
99.709195473457
99.6818948691816
99.5690477457894
99.7404184203874
100.151058604799
99.9946466228489
99.9356050762374
99.7629633325104
99.775783855681
99.8721761233561
99.9438501435006
99.934525955958
99.7419088696784
99.7399231062154
99.7992822129801
99.8292150216948
99.9083727746797
99.8667007116142
99.8360727628524
99.7650172196566
99.7296105143621
99.7612227541441
99.8622916264405
99.9086573544283
99.8930694868997
99.8173133020174
99.82902398062
99.9447503399446
99.9427397216899
99.8719701068017
99.8170040148486
99.6688985469834
99.6160770438055
99.6983782420967
99.839866658516
99.6666060189874
99.6375745264767
99.7415349937152
99.7761429040659
99.5896520607339
99.4688981360824
99.6774545168276
99.5275475686459
99.5138662373377
99.5463157505613
99.4905503629075
99.4837833800997
99.4759544911419
99.4611637021401
99.4675222682896
99.3750169153689
99.4169069557147
99.2029916607084
98.9491256612322
98.9160410172567
98.9890122536574
99.2068499163313
99.2590825465267
99.187340653694
98.9936063786841
98.9147742647944
99.0402135829942
99.0493037531479
98.9951329271966
98.7091808685943
98.6755296502185
99.0241063049237
99.0469996497444
99.0272921497788
99.0140735354943
98.9623497402977
98.9526889417566
98.9506484933093
98.7940408118507
98.860889532997
98.8579902094881
98.8907906744242
99.0722502854813
99.1298991389661
99.0155723815883
98.9274471715695
98.9283608860453
98.837542862857
98.8510332592408
99.0557565333457
99.0287049389595
98.6051304302741
98.4566511986073
98.8354622225707
98.9623866409476
98.8963070041115
98.8064786393608
98.5981629749325
98.4341181894814
98.534950360513
98.6144601564035
98.5667274469111
98.4796931221918
98.3756565620441
98.2585641539745
98.294320596533
98.3634337850983
98.387614073099
98.2764551668008
98.1142655453392
98.1646895071648
98.1779411475411
98.1064268440753
98.1372086533169
98.1989271051251
98.1802862162882
98.2066013798332
98.3201209330611
98.2546604981663
98.0145247635171
98.1340197757403
98.2282283682295
98.0559473387619
97.9232047637331
97.8889424162249
97.8408100921342
97.9470251285434
98.1061060966412
97.9852837990441
98.0141494002569
98.1734792047475
98.1090496227721
98.0352343741612
98.0582443217068
98.0312808998682
97.9772814783876
97.9758682630519
97.9430498473163
97.9223679558067
97.9477928524986
97.9675121554845
97.952063740892
98.0250239145188
97.9664620363296
97.8959137577681
97.757356939377
97.6246982904598
97.8037919262723
97.9304395515992
97.8464728050415
97.7865918190422
97.6752947445323
97.6591458471317
97.5925607006047
97.4868282404403
97.5053634767568
97.6501032816361
97.6961709424843
97.6809735131801
97.5571023699067
97.5249896012176
97.6811863196151
97.5850793589314
97.280862325623
97.2044475024443
97.2161920471542
97.2752141891367
97.2359476159886
97.128285455234
96.9463712541197
96.6566368140637
96.5128700151094
96.3697147266347
96.3653380152854
96.6062456966319
96.7762232851196
96.8112664527371
96.9663618579265
96.9509099245861
96.7242908009589
96.5639920110204
96.5259017580065
96.6318030793925
96.7158447448679
96.617964153284
96.5698990818115
96.5572297825041
96.6323664314239
96.7840236933067
96.8048217470424
96.5996754492787
96.5001012285949
96.6877682651453
97.0054610974429
97.0880777785128
97.0334908339165
96.9003172333983
96.8770710395173
97.0518781609984
97.1554083572875
96.9597982489567
96.8343199744068
96.8662118409865
96.8990138392728
96.910160677127
96.9013321340838
96.8470538857841
96.7211381072586
96.6737621418692
96.7434953069878
96.8888122828089
96.9216567314667
96.8795412879405
96.9811980089614
97.0033921963379
96.9248587436128
96.9823111878153
96.8939375436394
96.8463370299653
96.8805240455485
96.831069450127
96.7860490578285
96.7696746708226
96.7115264302851
96.7153105981017
96.7430879114523
96.7078775347508
96.7252954513202
96.7609183740375
96.7904486406578
96.7795760854469
96.7211263801008
96.704460386578
96.6945663615674
96.774161131027
96.8609639338101
96.8469291278427
96.7135476794587
96.6783406079078
96.7757891331064
96.7272997166775
96.681777394642
96.6533675115812
96.6441348826415
96.7704764316265
96.8531955911448
96.8608928572686
96.8435712450439
96.8088198153374
96.729814268804
96.7219405378365
96.7670865532571
96.8054709373452
96.7778171920964
96.7559777403536
96.7405223468587
96.727737151984
96.7677221115502
96.7835782595575
96.7650485027268
96.8274179412612
96.9033500560856
96.895523988912
96.9029546077488
97.0074322181412
97.0332859274523
97.0037185270514
97.0006196598564
97.0073904666227
96.9549024905862
96.8750942527572
96.9162158636975
96.9607011632281
96.8896902927038
96.815761987381
96.8823366657822
96.9622260942464
96.985428031204
97.069841304705
97.0798093115199
97.077137420878
97.0636950722179
96.9980963134071
96.9498756105103
97.0107545370302
97.0898315764893
97.0902337591541
97.1306583194188
97.1429035047298
97.1204939872284
97.105115015425
97.0552395977419
97.1211771414564
97.1767003970197
97.1838440173267
97.2360362151151
97.3168639924954
97.3728420479914
97.4092179386423
97.3086822132529
97.2698452679883
97.2813797938656
97.1993661456549
97.2279238439384
97.3680914652435
97.4704221303207
97.4248480241702
97.3301512063309
97.3076485675389
97.4057543621911
97.5523814357336
97.5368372051596
97.4444317708913
97.437156664865
97.5567747505064
97.6212224789858
97.5341511884111
97.4667895368795
97.5216497247918
97.6038381410467
97.58901268759
97.5244347808271
97.5496895309282
97.571685516828
97.4765540390092
97.5198669151809
97.6203502184261
97.6674817274647
97.7023073537307
97.6674389526093
97.6127490297722
97.5996434911288
97.6920032156353
97.7233511306034
97.6307918169597
97.6403227430332
97.6837778558611
97.6472299630925
97.5793275608418
97.5671900203147
97.6635320891672
97.690971253887
97.6134062548363
97.562959286409
97.6496436198008
97.7009223709102
97.6250067459252
97.5503734050489
97.5437622164202
97.5087895823514
97.5416602703013
97.5615075751357
97.4997819458957
97.3771231157332
97.3972618444909
97.50555245458
97.5065505236944
97.4865362915446
97.4784805849736
97.4894567540941
97.4380768635254
97.3769321444906
97.3515989378177
97.3287677855715
97.3146715584496
97.2833344933196
97.2628320672011
97.2435839726961
97.2613072665344
97.2445772256478
97.220220415175
97.1757725407891
97.2192995460776
97.2565801822928
97.2535464893628
97.2629756065886
97.3178418166956
97.2772611134971
97.1803428184246
97.1899178284776
97.2805778576705
97.3179168658392
97.3889711623107
97.4834072925184
97.5748264402759
97.6780409505941
97.8187040611443
97.8810910739404
97.8974471333286
97.9343422480386
97.9622782775953
97.9822343930769
97.9273837299857
97.8703295027575
97.80860393324
97.7896736382686
97.8156677276377
97.8028023780562
97.7113715357642
97.6234735789676
97.5509614680522
97.4927017358585
97.4954422760956
97.3822917225495
97.2097839787424
97.1751008974474
97.1005148511582
96.9295576081479
96.8239659197157
96.7567687947024
96.7074894417927
96.6303446102308
96.4590212219185
96.240861952681
96.0762179354215
95.8806337095371
95.7072817127737
95.5126138046758
95.2877293991656
95.0808186986613
94.8236029520947
94.4382349348703
94.1027307582967
93.7902395962461
93.4397120426846
93.064329110726
92.6174865323301
92.1644389574542
91.7951572439835
91.4682707174311
91.0981495274389
90.7976477261368
90.514999097183
90.2293002090515
89.981861473378
89.7735423396682
89.5591931718535
89.3659076872502
89.1664902561574
88.8932918057277
88.5905753691293
88.3397736441428
88.1101955730238
87.7386589132631
87.287162114247
86.9269389065104
86.659206600352
86.4434499822755
86.2788922888419
86.2105152747442
86.3344689202901
86.5548541481812
86.8664907644876
87.3458678181804
87.9733298546784
88.5587507047116
89.0654317085081
89.52451372538
89.9126144524534
90.2564307307194
90.5721682159715
90.7898372693733
90.9253646791719
91.07451426767
91.1950602248571
91.2521871933702
91.3478181843707
91.6093521649407
91.8924389779634
92.1188376277552
92.3723581604665
92.6419187682071
92.9250783976536
93.122802758972
93.2044106429355
93.2119155114814
93.131317232752
93.0561740736369
92.9555834828939
92.7805603664785
92.5535373217679
92.2724603602148
91.8790128407965
91.3946152743305
90.9388843416527
90.5012651005985
90.170269904394
90.0768348446103
90.3652863534539
90.9168181128165
91.6066614689153
92.4187880219067
93.2801134109268
94.0450519379659
94.6381518284614
95.1269438124403
95.5069620140615
95.7941219278496
96.0550472551498
96.3608788615444
96.5635778399367
96.6878285954312
96.7927339254616
96.9300316876201
97.0306823241614
97.0439363929638
97.05520571209
97.1405618861058
97.232057260254
97.2777433843824
97.3410452224009
97.4325919717687
97.4437042888065
97.4566258275
97.5291734951263
97.5443564525434
97.5766856641345
97.7129505009843
97.7537204583544
97.7603012154214
97.8107233944
97.8227100283214
97.8726654834012
97.9461169260059
97.943953895196
97.9330452583977
97.9281407402136
97.9283738247505
97.9436950196387
98.0167053140422
98.0997682475987
98.0978176280335
98.1182743992542
98.0770640898552
98.0204332785817
98.0704373514805
98.0989041619797
98.1193176201049
98.1635255838914
98.1818495492154
98.1627817205405
98.1535069765491
98.1813585232912
98.2282239176591
98.2527804116224
98.2686470128713
98.2609251291007
98.2522026525405
98.261533939161
98.2613407354082
98.3032271364081
98.3670815437569
98.3371829158702
98.2883990908721
98.3389226966929
98.3673612225412
98.383607842467
98.410468689105
98.4421084121578
98.4531100141044
98.4522228130438
98.4944066652657
98.5092284557659
98.5069336431422
98.5351607697774
98.5691863305182
98.5900065686134
98.5808896128584
98.5538258440126
98.58641831618
98.5760035797304
98.530751777525
98.5490380580201
98.5613203028899
98.5689363741145
98.6235809951286
98.6030089126642
98.5637595358456
98.5506491487647
98.5883261908897
98.6384918619252
98.6134742819695
98.5965857864811
98.586476853828
98.5690933069115
98.5594314902186
98.5854744895745
98.6069037716139
98.6006593882136
98.5932722760921
98.5860565516181
98.5704114624939
98.5789097531886
98.5886610891835
98.5850024444408
98.6256002834779
98.6625611616026
98.670342836027
98.682850957538
98.6573460730051
98.6288945118893
98.6736399747246
98.75074435841
98.7252198649877
98.7040376226613
98.7213032920787
98.6901372793997
98.696348466331
98.7244669911052
98.7061369366507
98.7283749496988
98.7610616811791
98.77714338146
98.8412515730485
98.8465642752468
98.8156251920186
98.8594660681244
98.8835186304219
98.8315176518166
98.8609252794466
98.8824156504933
98.9200032594933
98.9982524129763
99.0320166793735
98.9952138374257
98.9993694323017
99.0671723063939
99.035584198319
99.0348825772061
99.046366599346
99.0641427511826
99.0552950448872
99.0265898218807
99.0531617658249
99.1079868709864
99.0872349720906
99.0838123813885
99.1119601434716
99.079349423339
99.0664726070998
99.0383809664758
98.9842273371352
99.0328997320699
99.2045417870658
99.2723652027749
99.2329173698758
99.1315726291535
99.0841389583639
99.0807253557349
99.0868305519291
99.0415224675161
99.1080220670592
99.1591071250696
99.1011213089882
99.0836318329772
99.1447174652292
99.1531508616389
99.1619656890311
99.1411946880736
99.1041961354356
99.1133701453585
99.1407470628737
99.1337537151333
99.1382499151791
99.1391046253802
99.1358018725141
99.0382614307648
99.0495974175353
99.0757295469215
99.1914468453517
99.2849895963028
99.2374877111342
99.2341807131151
99.2396985877022
99.1734379397295
99.1686350729927
99.2143506637116
99.2701487593129
99.2950705283911
99.3035914411355
99.3015032911287
99.3222850039304
99.3660236463391
99.3644961880016
99.294478735034
99.3448850822722
99.4183890907817
99.3880990151524
99.4184767744839
99.4228236508324
99.3949305788699
99.3648351641337
99.3923556203621
99.4054004846267
99.3193002920934
99.3485377484679
99.441661679301
99.4700510895348
99.4218705536112
99.3689980206943
99.3306874031981
99.3192125174322
99.395536766302
99.4015797686927
99.3874780431799
99.4710654297274
99.4809120084336
99.4461724002139
99.4330037747381
99.434056119261
99.4177947629184
99.3877820962773
99.3846989396313
99.3981971404669
99.3934565018924
99.3460651076095
99.2768448871874
99.3511006003596
99.4195154318197
99.4354779355471
99.4158461990231
99.3526769444816
99.2894279499195
99.2778423118187
99.2734631151277
99.2767813381561
99.2101872616473
99.1864100305953
99.2813011172252
99.2789228380217
99.2115260984129
99.1854923022946
99.1415112958917
99.1066771241713
99.1155374789283
99.0903871831206
99.0834531876288
99.0634150561862
99.0337562066838
99.0204489718767
99.0546259295082
99.0957821698927
99.1027728353651
99.0478589503649
98.9844604759494
99.0738393876223
99.3465428149321
99.4176912159563
99.3792064973365
99.3497187417949
99.3014257955004
99.3522056545363
99.3730835635093
99.40678937244
99.3942424224934
99.4286388898364
99.4110328068242
99.3579850300846
99.3519617464713
99.3444237001432
99.3457581242362
99.412041762689
99.43751617866
99.4408887369628
99.3628573731465
99.373863748065
99.4517447003117
99.4566388561585
99.446404305869
99.3959407812038
99.2451440130769
99.1529085871566
99.1668867158308
99.1696643970231
99.268083248154
99.3867593289256
99.3821739681478
99.400545183014
99.4422914133709
99.4574495559324
99.4550034517438
99.4620173467409
99.4805252728481
99.4860307179783
99.4880827669065
99.4320163254962
99.331328252493
99.3948724997136
99.4495661310209
99.4077249053335
99.388331857693
99.4133258120744
99.51078368186
99.6290288561009
99.6127362417998
99.6057403709535
99.6495165565437
99.775316036252
99.9354832397849
99.9877925530508
99.8821540417844
99.8514481094155
100.025305239053
100.190893929441
100.198327015573
100.210763968519
100.087181660595
99.8575157580143
99.8428544036538
99.9497923735415
100.027827698798
100.309580662525
100.462073871911
100.358643921578
100.273601921125
100.197353454422
100.115458055196
100.092436295855
100.167456393358
100.31624526975
100.368079332804
100.444037950743
100.200470594996
100.04494974651
100.325902356842
100.463096709101
100.431925738407
100.531353465692
100.559306012015
100.501712797754
100.634437450059
100.76604126996
100.579842028855
100.456685444532
100.501960104528
100.464079335862
100.530004055061
100.748238409358
100.897567525683
101.098612193899
100.925476903181
100.915523772337
100.964937720983
100.905772623877
100.977637741556
101.130894970544
100.970423879104
100.8778797389
100.914622143785
100.957911170584
100.849255698652
100.727240238787
100.783774274741
101.116277511921
101.158277643388
101.034071983246
101.020185433793
101.413397818808
101.80233816835
102.080117564076
101.681208955987
101.155345537516
100.630387718478
100.29411503441
100.579555491044
100.595034169493
100.362108765462
100.385321148247
100.218320780199
100.079746221333
100.231772074828
100.356208649289
100.301374550361
100.303563165107
100.3125533774
100.033784230523
99.8440465143904
100.070620679968
100.04167722244
99.8052749264759
99.8326903033357
99.9879654618581
99.9215013992279
99.7791026678604
99.7240778489349
99.7984721274776
99.7793345198453
99.698700044013
99.701935017975
99.7517521416189
99.7977136875002
99.8562323814511
99.8295060233096
99.8381671686526
99.9046921010221
99.8504924417871
99.7912330018905
99.9248963115813
99.9809134633455
99.9081103286717
99.8750396547167
99.9279464787905
99.8648783231891
99.7032161235343
99.6672218763596
99.7802856090856
99.8779278834164
100.005313264255
100.084085878685
100.115317997901
100.209690104149
100.264219067881
100.230721671825
100.283447818289
100.235464708262
100.298990877997
100.485046342866
100.672172417618
100.5847526114
100.631696294566
100.989734748979
101.273750114864
101.388546112568
101.256413266436
101.277849253904
101.481963536514
101.04505769433
100.717547280801
100.752625294552
100.72568897778
100.721658096774
100.868909611128
100.789181385451
100.715514407603
100.528074854122
100.403815439425
100.601663677279
100.902724140126
100.906384916032
101.087253689706
100.908080078546
100.668634487709
100.550609330682
100.454755268863
100.38635140427
100.415571717343
100.280877938444
100.298968985611
100.337292593311
100.17311896481
100.193990423058
100.485317784581
100.40499682945
100.35484431141
100.503600228972
100.436630910182
100.101331127641
100.35432535346
100.576831018631
100.244794412728
99.9905017972527
100.409024560906
100.654285551466
100.384270802739
99.9885892058005
99.6793568053187
99.6631213939735
99.4886117749607
99.3376685599656
99.4784105924432
99.4391386547488
99.4213669159129
99.4067807059865
99.3161156762079
99.1542332217152
99.1891639689803
99.3351284866274
99.333016871305
99.1707209750728
99.2626395794513
99.3634446840847
99.3006947830762
99.3966420619087
99.6171405587384
99.5685054155906
99.5601164546753
99.6550122802593
99.5555893183066
99.3843069880534
99.3389119748789
99.4242138474361
99.6003647730939
99.528805514956
99.4491963815708
99.4650992083951
99.5377768427441
99.5508188323462
99.6183753507664
99.5532202960868
99.5093107559581
99.5038988316161
99.5122477768469
99.4708175435694
99.4926384572117
99.5106344334252
99.508657896333
99.4338894638581
99.4771468909722
99.5463436495822
99.5851726808747
99.6036269374271
99.6223321090299
99.6173757095606
99.5682040546763
99.468787204512
99.4930736470377
99.4720335409359
99.4733994716906
99.4472363278388
99.4354772223765
99.4002579354908
99.4352680381979
99.390879125814
99.3035789603604
99.2708524334574
99.3002241332495
99.1975494006329
99.1058503015479
99.0509613776676
98.9389651940786
98.9001620384018
98.8380946833311
98.748939619313
98.7658127710803
98.7064652496501
98.6616398762204
98.6094383043978
98.5093211258222
98.500828115985
98.5040984209456
98.4629122780998
98.4571404373141
98.4868655655554
98.4765985405661
98.4088358876632
98.3859498662094
98.3846812870947
98.398790941681
98.3747432660253
98.3400040111595
98.3421829963035
98.3418423284084
98.3123636718395
98.3254333613359
98.260808718863
98.1353917850749
98.0798774833502
98.0919353885492
98.0542897074864
97.9681615084243
97.9315498542198
97.8410617889693
97.7628781492063
97.6974767519925
97.6832679359649
97.5813540705432
97.4660024430596
97.4045089732101
97.2888431639654
97.2222463849235
97.1014409708907
96.9443382792059
96.766922044105
96.5212417915849
96.1910497734324
95.9139385916901
95.4795927074376
94.996194199782
94.2984338797872
93.4485805797546
92.3513193124788
91.0013370406002
89.1878637542666
87.0569205722178
84.480548129668
81.1123263347953
78.3872407709279
75.5957295881346
71.7066677782145
68.6820580348384
65.8026432684576
63.0994756896151
60.5332969766809
58.0039640992194
55.6454903996695
53.847460897623
52.0836604614044
50.3745758716425
49.2176143886536
48.6144302663803
48.618617757662
49.0162151751933
50.186973252327
52.5500014270086
53.9981303843557
56.072205626751
60.5921210419885
62.6485176062033
65.8660820691577
68.9205459393247
70.0073483737944
71.170444936638
72.4263570070177
72.3477077756287
73.6438204426135
76.8765281301938
78.0465646090228
78.1415205327685
78.0131389646656
79.0164354783385
80.42236139524
80.6263357424511
81.4372388571194
83.1574103205399
83.6724937242357
83.5565863728605
84.4095699241094
85.5453768112318
86.0110603920966
85.5693829623207
84.3871694185001
86.1555534642263
88.6186454560063
88.2364963103238
87.6725225548159
88.7091763773458
89.3815056091753
89.317394897737
89.1093299884781
88.686597279623
88.8271655195029
90.1285583796798
90.6476854169081
90.4133308657314
90.3394992387911
90.5062114426659
90.5771742933159
90.8338434188059
91.1964155671073
90.9232723197186
90.3396411043486
90.371168036831
90.5876877225768
90.5329525235801
90.6366811362799
90.9854216268468
91.3704403766171
91.6867940575959
91.9597950177083
92.2504664929184
92.4970141953542
92.6169969412491
92.6947125189273
92.8347535902836
92.8839147929107
92.8405528144753
92.7753480180185
92.5724821369966
91.962421386482
90.8922018954139
89.5168970307086
88.3600686848054
88.4388865045905
89.9766894453282
90.8757422518233
91.3256379115453
92.1952593655912
92.9973525848629
93.4225728347558
93.6025310018349
93.3355514011778
93.0217350095933
94.0126865940784
94.5692327629878
94.5654540383531
94.5408714771289
94.6222921520711
94.7152661904096
94.7289757085575
94.6239924791256
94.5593337095923
94.5905248297127
95.0751001937936
95.2131807598767
95.0443604101647
94.9127798061994
95.0120035032083
94.9391507758288
94.7702411736977
94.7722296297893
94.7675213094428
94.8084385385729
95.0480234792794
95.2126421889201
95.1930606377468
95.2177844561235
95.0738294089845
94.548349160302
93.6491477530065
91.9543600425364
89.9137937489012
89.8355769001145
90.9267364007776
92.4778929103285
93.9273053909196
95.2078867143998
95.9520891294625
96.1127301743038
96.0519542664038
96.1144643402589
96.1694631464694
96.0411874420729
95.8053354269891
95.4443701464129
94.9475176962542
94.3592663891279
93.6887548481143
93.1361046560419
92.6389717726411
92.1019245873183
91.3293930096078
90.5273956016353
89.852464942916
89.2534915723338
88.4758107878028
87.5436902354572
86.7479912993209
86.0825872463755
85.3348771091134
84.6593941204988
84.5034608305957
85.0347714160005
86.0513020410171
86.9245648239551
87.6976480854862
88.2816662324276
88.6392919889782
89.4903873033617
90.8371500535794
91.6366310011257
92.2525851854783
92.9675270468185
93.4362344325506
93.5939335534678
93.5614420822067
93.3974661061802
92.946347059549
91.9665462433246
90.3113261113878
87.5373290500354
83.4892495908427
78.9061788741696
75.8076442136831
75.3520324898458
77.4827955150948
80.5150317598215
82.6803944957895
84.3908391954878
85.7669257478279
86.5992058770902
87.2944426402344
87.7161699322501
87.8080680373531
87.9567055649118
88.3540357000226
88.6840111635405
88.7200410644675
88.4974919914702
87.9763713210889
87.2670141325547
86.5432198225574
86.0226634117718
85.7805581146384
85.828476625317
86.5039319060923
87.6601741333314
89.034430810601
90.5830014704087
91.781630069065
92.4026346920532
92.7274619665424
92.9470206462135
93.0706626780218
93.0522315775177
92.9088734773764
92.6056606433973
92.1312872206417
91.5233664042398
90.8663357350445
90.3717032903719
90.3785107602139
90.838349052685
91.509727028459
92.1185875585918
92.4528351519583
92.4317238600186
92.1077104562991
91.5746982952577
90.9034583250786
90.1894189369564
89.4753926632984
88.7984968593516
88.2004119125088
87.6619724454915
87.1165904477062
86.4542219127397
85.6258421721839
84.6880540899927
83.7670613250121
82.8415017666743
81.6737581635036
80.1309783927578
78.3106183285233
76.3856467214883
74.5508118442084
72.9371401307194
71.5512410205867
70.2588895656116
68.9516717666105
67.5985431984868
66.1970115692993
64.7636803617028
63.3633142001982
62.006938695645
60.6915513658509
59.4001650819379
58.0864183744201
56.7329908581821
55.3488660550381
53.9323888341115
52.5796036455216
51.4235415416293
50.5727068272301
50.0579724531787
49.7804084283997
49.5281986058331
49.1323416961455
48.5499628451583
47.7939920633102
46.9219189775751
46.047551782796
45.207615373358
44.4805881083342
43.9620350700901
43.7136706320927
43.7856071647757
44.2220093840915
45.0362129363835
46.2414669408551
47.8005853614564
49.6500011364279
51.6105543802891
53.4972122368702
55.3005759659542
57.1468085550508
59.0872154145076
61.0677221810447
63.0069102514442
64.8457841555473
66.5516463883091
68.1597514427909
69.7001674125749
71.1656866102741
72.5342685901885
73.8467670714922
75.1278370257649
76.3610174318788
77.5525211748487
78.7208006856295
79.8445225001002
80.8760149186464
81.7491205576876
82.3722785810317
82.6458932360666
82.5325257978302
82.0702978424427
81.3809242702899
80.6912752240161
80.2777392300542
80.398636809981
81.2075463804168
82.5453966057692
83.947795031789
85.0229782320905
85.7441704833256
86.1861758229993
86.3275230001883
86.1901738886589
85.8411048715291
85.3030585894854
84.6387951649572
83.8749669593308
82.9667104843188
81.8726830206383
80.5589005293625
79.1047780747738
77.6467878185759
76.2186204833707
74.8255382019977
73.4622232382733
72.0540743983487
70.5474581293925
68.8884244107002
66.9851767533818
64.8587444030929
62.6079035715453
60.3805132503426
58.3846695184794
56.8603387683556
55.9802172769883
55.8698799912611
56.4581953586303
57.2224597825807
57.3266342763035
56.3710101270197
54.608375191847
52.5496944686713
50.56320745242
48.8253906113475
47.4013994375067
46.3252335237131
45.604291672324
45.2276523877709
45.1109501601113
45.1795387103324
45.3666007922342
45.6062611882302
45.9314380946782
46.5364628809964
47.5318873148635
48.923148440254
50.6079758054581
52.456079426523
54.323537628427
56.1145923947441
57.8086858262552
59.4214575876309
60.9461334406395
62.3787878350818
63.7032134284944
64.8445295100312
65.7188881361021
66.2807677692266
66.5070710924822
66.4413080340815
66.1397563449201
65.7113320816494
65.2807464575492
65.0189474995725
65.0163497483054
65.2877177425021
65.7970738475062
66.4616922611527
67.1876664954158
67.9271288103734
68.6680944005616
69.4010158154408
69.9768622897612
69.8505063913611
67.9593938205142
63.5938183621055
57.6934671660635
52.6772376683458
50.7824069804626
52.4917487510936
56.1339540794773
59.7889794779043
62.8399618998465
65.3454849792526
67.363235660788
68.9769291877941
70.3149080157152
71.4733972817547
72.452349499294
73.219354561346
73.781626829864
74.158318858978
74.3663929442443
74.4843491685131
74.5668427226411
74.6167352660074
74.6250404825102
74.5371156223414
74.2589899708457
73.7730763830651
73.208867579658
72.7128446030529
72.3806316428627
72.2359194985086
72.226155322309
72.3085133504399
72.3615097426033
72.1988210447247
71.72995815943
71.2431778737083
71.1473482813352
71.4563880848397
71.9303951219035
72.4274303857488
72.9812489133402
73.7350662023802
74.6480132808133
75.5884936204156
76.5101234651036
77.3342507562974
78.0091715612043
78.5815567741629
79.0581581330359
79.4443833051367
79.8001921656499
80.1564613767401
80.506265715724
80.8788761623434
81.292949447189
81.7073620280776
82.0824078412226
82.3931387734199
82.6377855401074
82.7659817842852
82.7255860573447
82.4780627632385
81.9749276442087
81.2030629989939
80.3036836924592
79.4921566728788
78.9290763980366
78.6396309307846
78.5259772063075
78.505620667698
78.5519037786368
78.6213906762983
78.6320266693267
78.5011325395939
78.1302030661073
77.3589008770397
75.9719678828011
73.84310843186
71.2133797527207
68.5375529187183
66.3806119744742
65.5218194327985
66.3360005676278
68.3258106042803
70.6493243162023
72.7583241316996
74.4808068718783
75.7379842416049
76.5034665168399
76.9542234808658
77.2418846900952
77.3671595518705
77.382608717938
77.4150108356153
77.4233751541285
77.3687306961164
77.3592716687922
77.5071909588939
77.7504397759368
78.0650494547283
78.4977488629964
78.9339622258324
79.3619007298057
79.7242064838095
79.9949265126028
80.2442963256743
80.4351908685995
80.5200249549819
80.6067544448198
80.7578402703525
80.854373363739
80.8168580340288
80.8169145041927
80.8521265537853
80.8262365710539
80.7426675027584
80.6503625600002
80.6910730456496
80.9660276504308
81.405513598877
81.6209663705166
80.8338608006598
78.8780524959127
77.3075360479094
77.4240499917011
78.8582694739994
80.6380749025883
82.2560252307494
83.6965724058092
84.9168782210893
85.7545931976953
86.3015774639544
86.7541678915297
87.2101338945805
87.6996785202526
88.1890831354831
88.8485922813575
89.6478885484131
90.2946147341668
90.7752668174158
91.2809262168574
91.751768219015
92.1303705601466
92.5060135444042
92.7821403940999
92.7913299297281
92.7347183924779
92.6372837622104
92.2824982473075
91.3871084551596
89.6926949907731
86.8636381187928
82.3208543996024
76.1779553833398
69.4691442239878
63.0807268621124
57.3299923490322
52.0345829406872
46.7763045860379
42.104466886161
38.9484250945096
38.2967003145805
39.7791586326856
42.7741523481146
46.8376199732921
51.2333921857554
54.7841749405772
57.1326584099905
58.66500888251
60.0212307057967
61.3795315744268
62.771213377373
64.1751509375403
65.7602061927674
67.4533710387346
69.052697518666
70.4067803963537
71.6995004971448
72.5970837364146
73.1218894179212
73.7691974916457
74.1529900351667
74.2413036840001
74.3896610287125
74.4106762723798
74.8771077494571
75.7749041571217
76.6731619010686
77.0311028753527
76.939514908712
77.1974446074816
78.8932299640793
79.1974264183903
78.7463806021544
78.9167425197769
79.3548055697724
79.824304409729
79.9605729380545
80.05007474066
80.4140748809846
80.7996121213997
