1798
3999.43349933624
650.420452594757
1
128
4
99.1797788728703
99.2749533738487
99.3513378620338
99.3224205700901
99.1917006823432
99.1336278786246
99.2211831869794
99.2630390743644
99.2236000454634
99.2373970028777
99.2329455893574
99.1672893584312
99.158303512447
99.171671939567
99.13128629164
99.1244659565798
99.1521771263058
99.1386630908827
99.2111089480877
99.3093510343343
99.3018724833758
99.2646844547508
99.2338950000548
99.2028096560913
99.2036938372469
99.1909381273346
99.1943817722972
99.1717673396391
99.1921560295318
99.1701698887674
99.1669661167656
99.166125428203
99.1183388276311
99.1212919051466
99.0194602078056
98.9121289220533
99.0493854714997
99.2381821508347
99.2774191080944
99.136905351947
99.1345532958915
99.0660317084753
99.0901845762894
99.2013003938696
99.2784161702945
99.2296733845458
99.2102374741607
99.2580690787513
99.2057344299744
99.1278622338787
99.0565857130315
99.1277818705386
99.2320481599577
99.238889528321
99.2610656408314
99.2015412034827
99.0804444336914
99.0600926522108
99.1903287417139
99.2297630097086
99.1817598573754
99.2373916891787
99.1231430689579
99.1908563690854
99.2979708308246
99.200637998784
99.0380693206335
99.1121084777994
99.0673079386993
99.13073561158
99.3026651656918
99.1624215403632
99.1919046971729
99.1408156920774
99.2151387463746
99.0790424474045
98.9910020600691
98.8561233608288
99.1340427680284
99.3456570044698
99.3180365272863
99.1866712416682
99.1867810179711
99.1550411659582
99.0655732293115
99.0268077129332
99.1043001742033
99.1264691794328
99.1639764407848
99.2159058144629
99.2713632150575
99.189720568952
99.1346066821055
99.0833334226987
99.1208795946414
99.1384457628089
99.1270987724336
98.9865669107469
99.2263958791007
99.3270939520001
99.246791079218
99.1671110238817
98.966821274378
99.1081625160067
99.247768102246
99.0389843209568
99.1060631044266
99.1284223236386
99.1837722519653
99.3646814824235
99.3077143607805
99.2217315467633
99.2332281282164
99.261273636919
99.1586486563665
99.1381621794098
99.1780116187232
99.136866888761
99.2469815658247
99.2483999151622
99.258931122064
99.2160976821841
99.1367212602426
99.1789026746454
99.1104601268144
99.1520769637724
99.2793147460776
99.0931628167843
99.1314256260161
99.1455762475809
99.1255325186054
99.0294417220836
99.1583970497003
99.1928814486858
99.1956785627423
99.2329674257121
99.3722594842583
99.4854740479545
99.2177097214442
99.2774421116576
99.1224500264338
99.2360093462238
99.3596498683068
99.3329065824395
99.2537120087634
99.0383824650955
99.0477700570274
99.0667940184872
99.0595519668382
99.1697376587216
99.2170558700075
99.2914923832979
99.134682136584
99.01442850137
99.1936870586644
99.4013236355334
99.4582692278723
99.4026184256987
99.2971560135496
99.2498649503325
99.2437480669808
99.2302018971536
99.2199050261424
99.093286744105
98.9604927519677
99.0992006349858
99.2044192386749
99.3649735457987
99.2244031112614
99.1885082114805
99.1750029751834
99.1788214010494
98.9847466239005
98.7133462343915
99.0041091524346
98.946856940322
99.0106598533006
99.1502496622738
99.0029510412673
98.8496985482278
98.9181101844353
98.9920259444208
98.9719040830367
98.8537193242211
98.8883119727816
98.678332091664
98.518106156038
98.5638767973042
98.5363391603622
98.7058306797852
98.7341120534566
98.7337065824171
98.7241108068965
98.6454840537483
98.6276187207805
98.5300033688299
98.4841223481928
98.30829880148
98.4550441512325
98.7423317225273
98.6742949928596
98.6307123071235
98.5424659443405
98.5558757013905
98.6193007335753
98.4986573715474
98.2287632737711
98.4121082356149
98.5344505407155
98.584989889669
98.6710634473527
98.6536048060327
98.5638107284471
98.4673216377791
98.450854815026
98.3688426260922
98.1960813841798
98.3637428260061
98.4964349086216
98.2249410374004
98.0662021548856
98.4093745671547
98.5906977414304
98.5183556892853
98.4130334291558
98.3140517988828
98.2297402314356
98.213518569404
98.1287522402421
98.0977457604137
98.0014508046916
97.8401587922063
98.0312255640244
98.2943145568653
98.1772342879176
97.9646319357212
97.8382911513663
97.80155546615
97.757426329691
97.6871287086252
97.6869354891363
97.7508573428143
97.8406362412183
97.8969410226217
97.8180601600767
97.776762656278
97.7881026148816
97.7106057955754
97.7709000447392
97.817142543485
97.6807136773692
97.4889837380749
97.5073875158679
97.6185600357616
97.6626240091735
97.6807846616562
97.6119524590879
97.7525332637527
97.7250484384215
97.5600241542886
97.6513000927736
97.7589258391407
97.6675654667727
97.5686457364417
97.4605405744269
97.3936017879478
97.478782817582
97.5911643285457
97.5875693054654
97.5863418070398
97.6405428367802
97.5339206481622
97.4395160643617
97.3702388562876
97.3079816713847
97.3224177815706
97.3296118727551
97.3592234722746
97.4103307706826
97.3387718241476
97.2807423725334
97.193494856151
97.1034550439493
97.1763299624473
97.2625925015723
97.2911869777796
97.3335476057802
97.2536523077228
97.1682352469905
97.2090356768256
97.1852892699238
97.0526530846225
96.9905649388251
96.9278033552466
96.9167273946226
96.8152752712448
96.7199846234004
96.6929254674914
96.7004232676653
96.6302102730446
96.4183803088637
96.3104287627168
96.5328330660715
96.7543526130202
96.7227834756406
96.7259367710066
96.6610134813881
96.4869505220555
96.32293272208
96.1912067407103
96.2606778946297
96.4522850599846
96.384077293196
96.2702396027938
96.3318717656153
96.3841264969752
96.3483233604885
96.3543620638492
96.2905876161434
96.2503314750989
96.295787806997
96.467629372447
96.4569568262694
96.4169216099791
96.3576701222303
96.5023668793229
96.6790840674772
96.6296865390557
96.4907590455595
96.4365488075466
96.4534178107574
96.4419364533416
96.4296570017447
96.4564421855177
96.4334321555491
96.3371215892879
96.3033072810702
96.3598616064418
96.484753726222
96.4887716690695
96.4376292908164
96.4188877185645
96.386261942228
96.439420557317
96.5607392856332
96.3821267242319
96.3150584948179
96.3980806900869
96.3493151597803
96.2607669971441
96.2506586533787
96.2966154210881
96.3892839430402
96.3571865340815
96.1884129238645
96.1365391740103
96.224077701909
96.3034349049328
96.2328485833991
96.2144588955284
96.1813606825285
96.1660673233333
96.1871263360538
96.2673315632098
96.2854030858866
96.150434311324
96.081330313996
96.0878404985143
96.1411227347252
96.1860036795014
96.1592304182889
96.1558357727259
96.2081210406996
96.2202811959229
96.1460934610661
96.0426048349221
96.0673234410146
96.1104315020798
96.111255265794
96.1457731797121
96.1638343564675
96.1753418325132
96.230740430775
96.185886487503
96.1520630578942
96.0623634721759
96.0384895388108
96.1008233027011
96.1098807382488
96.2259744489475
96.3504127819906
96.3664118523761
96.3423093488976
96.3969242125903
96.3819782407756
96.2289693340516
96.1962267874871
96.2190732833038
96.1349052482241
96.1440025464901
96.2270263572886
96.2884145429024
96.3091572708134
96.3082883661781
96.3256658277126
96.3273332111374
96.3531337612802
96.4063703901788
96.4038888584284
96.3012922083499
96.2384221876869
96.2950601282062
96.3521949258475
96.4257274718604
96.4661832946254
96.45803539553
96.4556105065554
96.4921037952792
96.4077479725096
96.3590844291808
96.4710497149186
96.495616642363
96.5686067997654
96.6287609717597
96.5354314813714
96.5525288970166
96.6152529956606
96.5516215840778
96.5665303403152
96.5711558422938
96.5373685725793
96.5896508442206
96.7049989150637
96.782472230283
96.7799393985932
96.7203373923807
96.646299027358
96.6336505368208
96.7394423397345
96.7757690740304
96.7343103581543
96.7716646804308
96.8714854164116
96.9033882726626
96.7780360208028
96.7570251159041
96.7866091234954
96.7921928275375
96.8345519056935
96.8955253881069
96.9028861996856
96.8732945484114
96.8370948707876
96.8601141081199
96.9057518953419
96.8950799159526
96.9354134767021
97.0124183907407
96.9806296514672
96.8979526282019
96.9715486997802
97.0281961359984
96.9894197777989
96.9424157006178
96.9493747364453
96.9572496900346
96.8881174074099
96.8620903090403
96.985362173009
96.987633219626
96.9438344813518
97.0167539680131
97.0108823504355
97.0030090595667
97.0243581290756
96.9989797581212
96.9722947717064
96.9415378769396
96.9750031069015
96.9916126789449
96.9365572890877
96.8846266624268
96.8911427936352
96.8406343500832
96.7941617582631
96.8578494023563
96.8844840540528
96.8822819461597
96.9188338977141
96.910123686609
96.8540491135191
96.843838925746
96.8407771869476
96.8553190985247
96.8193516502946
96.7418920885019
96.7100314178978
96.7234766281142
96.7400392078454
96.7054456452678
96.7319905846502
96.7822276563541
96.7845868451653
96.7621872338614
96.797273928032
96.8702722012212
96.8061700581469
96.7192125985769
96.7468793330504
96.7917105597184
96.8375717712729
96.9385000915268
97.0065072664605
97.0485296496943
97.1393945609653
97.2043661845021
97.2541882127271
97.2940337457803
97.3475585812311
97.3921442405569
97.3381381796818
97.2929527145398
97.2241857820951
97.1923922408457
97.2199555488796
97.2278967326451
97.2212045313878
97.1607514932917
97.1007833978976
97.098449666119
97.0947938510455
97.0083856304085
96.891521186868
96.8706401369417
96.7994798439514
96.685387645441
96.6761164644657
96.6381832525851
96.557552553951
96.5260139674619
96.4572081547669
96.3093654661984
96.2129377886749
96.0707750463465
95.9323455378258
95.8207776798164
95.7001983219537
95.5946455474826
95.4273097831864
95.1746537299033
94.9662211332377
94.7869912350333
94.5449421268936
94.2231257756942
93.8779204308593
93.5645145371801
93.2976945751119
93.0671820227396
92.7582923696109
92.4895109927171
92.2687487992681
92.0769183384827
91.9009655745623
91.8126681285758
91.7071249132105
91.554747454981
91.4183523264284
91.2048285275212
90.9597099650399
90.7935186828599
90.565984243219
90.2679683075503
89.9311825063236
89.5594107261558
89.2266254931262
88.9038765929151
88.5451878687935
88.3742451224318
88.3634600054255
88.3897894251513
88.4879709234504
88.8099928752645
89.3228457453263
89.7738125306185
90.1335276566295
90.4980487331674
90.8916196716133
91.2338795688988
91.506738266058
91.7092660578835
91.8496893256759
91.9909433441765
92.0824730903539
92.111724025329
92.1909929241049
92.3684508480405
92.5246297812481
92.6810076147594
92.8837923921665
93.1421430202148
93.4124722457631
93.6137139414688
93.6950787247704
93.709851685407
93.6481674957849
93.573781209218
93.5253523257643
93.4326564106803
93.3661803960264
93.2834342544736
93.0185362463716
92.5837630158258
92.1784048479731
91.7811981180788
91.3459244910518
91.0399625432011
91.0613934891205
91.3596518529128
91.8383860139813
92.4300871960137
93.008761712038
93.6381737351755
94.2287828309603
94.6516471750401
94.9506164110173
95.1852588778971
95.4400147027522
95.6933724194362
95.8673631411444
95.9614079959234
96.0733313789633
96.2148757088232
96.2871501773715
96.289322378686
96.3127373141616
96.3945724768211
96.4873788029148
96.5223097562365
96.5308454019473
96.5923936889167
96.648113558887
96.6818306836403
96.7114988214851
96.7505895262575
96.8093736631897
96.8679015098325
96.9051420832523
96.9216348226207
96.9725509392729
96.9688273440277
96.9901869390925
97.0637924097522
97.0967900424656
97.0959522547473
97.1111934440474
97.1311300486642
97.1095831400864
97.1334660919923
97.142492655152
97.1753410125844
97.2565124687556
97.2639679185354
97.2696383608119
97.2281832843784
97.1940212654547
97.2306303891496
97.2488243664347
97.2494141586498
97.2763716272578
97.3271920437523
97.3444942540978
97.3472875723017
97.3722051010757
97.3940816604203
97.3798036111168
97.3592928972201
97.3395187382712
97.3622220378783
97.4218188608724
97.4575333653646
97.4549070405464
97.4514109197347
97.4572831029641
97.4538519820272
97.4690735351917
97.4809265528591
97.5278768937849
97.5449732667474
97.5444630064501
97.5931650663845
97.5991651109702
97.5767708383261
97.5779416577092
97.6043680152345
97.6194818085811
97.6245957742869
97.6155329018433
97.6452667789463
97.6479653336588
97.6156380545401
97.623691206245
97.6336248910469
97.6435932523153
97.6513288848927
97.6365021377009
97.6386823417697
97.6390984533311
97.6455595914218
97.6960634569936
97.700542098893
97.6651983254609
97.6433056421269
97.6628884659016
97.6565175258463
97.6438425862054
97.6723644412037
97.6828385826763
97.674871513985
97.6679241864983
97.659312372571
97.6531770091421
97.6355157359743
97.6325510528092
97.7066380320877
97.7311796637837
97.6943820607214
97.747530810834
97.7997308384824
97.7718515828522
97.7441544944377
97.7628912386551
97.75378618102
97.7756082132025
97.8104884390893
97.7608802786894
97.7571673947845
97.7917202635629
97.7957750740687
97.8239841408979
97.8242751211309
97.789749143976
97.8440244107908
97.9239908258401
97.924873194788
97.9329487691663
97.9209711547779
97.9134906673025
97.9614030005881
97.9632969038896
97.9976861035121
98.0464908488104
98.1013987738688
98.0850824547369
98.064002303463
98.1158805518904
98.1301768930545
98.1522862204843
98.1915620506153
98.1283572393278
98.1139084765839
98.2008574599961
98.188661613484
98.1352562863101
98.1428393612213
98.1787167942066
98.2063076313686
98.1902836498844
98.2131828176348
98.2275243783422
98.141439486771
98.1635379790378
98.3346315560291
98.334491451538
98.2999554399692
98.3192467583507
98.2930592410708
98.242327423842
98.2329076489823
98.2081820824553
98.2628900336967
98.2594990780878
98.2982260634177
98.3613430122828
98.3525910854827
98.2696498897431
98.2707915232387
98.3084000212792
98.27797710267
98.2835886353708
98.2915378907732
98.218891966769
98.2492398703479
98.234819309527
98.2428359374408
98.2206651368001
98.1574730707724
98.1714193797718
98.3062809552708
98.3568955458836
98.3120369891331
98.3493640152305
98.3521471412366
98.2766749410221
98.2766791094043
98.3204565654097
98.3581034807134
98.3851174009839
98.4238209778741
98.4107315242103
98.4171034881472
98.4700796883397
98.5056616910391
98.4431272141457
98.4054500182968
98.4499847900523
98.4755712589919
98.5310670168097
98.5000118752058
98.4246425262584
98.3911938910042
98.4408643470348
98.4377694218038
98.3685781897405
98.454647078919
98.5337242442381
98.501234247364
98.4481122888292
98.4367084190922
98.3738941603617
98.3532630142047
98.4034977021171
98.3914615929261
98.4597813468865
98.5320882261442
98.494391592926
98.5210786259409
98.5159036371847
98.5177582971297
98.5076026850099
98.4424138704902
98.4422973281417
98.4668033493229
98.4457296820384
98.4449010375471
98.4455304481121
98.4337348449294
98.4015424303953
98.372845995813
98.4148020701417
98.3907003859517
98.3350462988633
98.3989997978021
98.3777776094703
98.3433064521846
98.3591800858025
98.3642677674627
98.3664532108913
98.3787484845362
98.2914093064252
98.2220797591496
98.2349579144341
98.2907885053776
98.3012997667263
98.2566280835794
98.2363994101425
98.2134026774191
98.1851880653588
98.1701533190697
98.1683494909657
98.187747523296
98.1973194754026
98.0904704468595
97.9592743910503
98.1391022851182
98.4736658599943
98.4447142386778
98.3835217298639
98.448253221622
98.407079573255
98.4008946401886
98.4664699303287
98.5313239247004
98.4769915211268
98.4654291904502
98.4126790052461
98.3040270544636
98.3422874361602
98.3892822755362
98.4050420146654
98.4320471520547
98.4310238621357
98.44787504866
98.3411017102704
98.3736829301116
98.5201646898618
98.509054745704
98.4718916149866
98.4128728512355
98.2906275695611
98.2362105984526
98.2507282865641
98.2371357889618
98.2371046359234
98.3625291586062
98.4501997091095
98.4466730641466
98.4172953788204
98.4405966339478
98.471502693804
98.5158474618483
98.5334960717871
98.5444047679363
98.5245480890277
98.5491148627297
98.5174000276676
98.5098173928493
98.497610048428
98.497816256453
98.5307149941784
98.5091339665069
98.5821265465826
98.7461667961234
98.732960314901
98.6789167495183
98.7297409047134
98.8523357699338
98.9860525002844
99.0439847274915
98.9809556939123
98.9673954670708
99.0795945921879
99.21912542775
99.2497626335788
99.1612105786743
99.0606486003102
99.042309252206
99.098900494892
99.2705181520682
99.3196004608763
99.3340731178758
99.4061253847673
99.4114030806521
99.2983951674441
99.1850805156954
99.2712670747503
99.343507790901
99.3118305608751
99.3046266547213
99.4006044852724
99.6944308201117
99.6614917011469
99.4727155231458
99.4817811579704
99.5509809823956
99.5814620762303
99.7874829569346
99.753505485309
99.6017556589435
99.61169512995
99.7413569747443
99.7811369568465
99.8110022024154
99.874667700719
99.8498966760009
99.6340040118183
99.5561769926508
99.773122273378
100.169711057042
100.072149526099
99.9389900816391
100.083143831344
100.228040996185
100.230813966772
100.293478481935
100.218305471158
100.131550957119
100.122937676715
100.342425326966
100.331372551144
99.8869129596007
99.5573697270027
100.014713593478
100.244223276552
100.105529630177
100.245672815141
100.527243511277
100.395883719573
100.580991341815
100.484308414723
100.157284775435
99.899687294868
99.7500270094594
99.6513574951469
99.8275076660535
99.8800140628111
99.6504000212272
99.4133738665932
99.2132596374414
99.3565404327799
99.5377654775377
99.3863831185721
99.2847864053899
99.162864976662
99.008773258005
99.048374077668
99.1835537683953
99.152832293345
99.1001073728863
99.0644044909374
99.0408917860109
99.0055785801771
98.9107733811175
98.8327433396753
99.0080428281323
99.0289401392305
99.0410912904899
99.0320018959498
99.0024654846566
99.0461681294137
99.0095021670772
99.0266446916545
99.0937439436562
98.9920118433172
98.9327562331994
98.9326421800406
99.0918591862778
99.0745333930701
99.0331041197823
99.0817865899318
99.1101345721279
99.1914749811623
99.162293515014
98.9032493332328
98.9305365682358
99.0837893909488
99.2026231283754
99.152562174884
99.1327908524617
99.1597677224701
99.1560368425132
99.2505964980852
99.420643512234
99.3930664451197
99.5178307641309
99.4405468790693
99.5849277669209
99.7304136262883
99.7134725142211
100.002522282257
100.458231007614
100.581382839294
100.613866989574
100.838729029819
100.752759175123
100.023479516713
100.093935024538
100.367960807463
100.114065559599
99.7201079933034
99.6348001897522
99.7730198981307
99.8147240049142
99.7584089349162
99.9604916452999
100.105787239329
100.122310707578
99.9146803211236
99.9889844953614
99.8237273101335
99.8095533638296
99.9524383654115
99.8719205394891
99.6499212507161
99.6424514910432
99.6761021411181
99.6450660717236
99.3760362673701
99.199255192971
99.4119607833115
99.7997784160482
99.7159260469427
99.5819670338133
99.5895941998447
99.7787988752295
99.7547258727463
100.032427587299
100.115183189274
99.8861709222025
99.5127380268652
99.6610511536765
99.8826296709159
99.6794149749121
99.2852172918996
99.1270071045383
99.090430599354
98.95876362994
98.8686339517023
98.9255398602879
98.835656146971
98.8252787022212
98.8488487791231
98.9305341998691
98.7929715534992
98.6749776778475
98.8266747342531
98.9208599144327
98.6523546708226
98.6268198300462
98.6734161790502
98.7822852242495
99.0079983339925
99.0596196441393
98.8889916755518
98.8633230847309
98.8820982393512
98.7167078015143
98.5378243257155
98.5864311231834
98.6483406321244
98.8009577154572
98.8360097444213
98.7587712457453
98.681297108839
98.7252069024986
98.7113086950719
98.7613340654083
98.7644999539994
98.7531872852521
98.7132635123821
98.7001253911509
98.6403946027857
98.6281093759711
98.6344066581937
98.7325526861928
98.7505852024654
98.7652500664761
98.7884447162699
98.8532880257491
98.832612168038
98.7861442081603
98.8489603198345
98.8673684706395
98.7069119444008
98.6884069346176
98.6959095145191
98.7055513786325
98.6954069276919
98.7073078641807
98.6670324630549
98.6784649751078
98.659679218817
98.6757990064353
98.604975866335
98.5615078489064
98.4819163529298
98.4437012983301
98.4709517796201
98.4438994593059
98.3775841998986
98.284693561694
98.2549071052476
98.3119701604321
98.2151776063045
98.1784064248784
98.1536589055653
98.0708035475237
98.0821159367713
98.044279462747
98.0213406253845
98.0459806969896
98.0803306345978
98.0840235094569
98.0507447638645
98.0329509872477
97.9916937709969
97.9726812949519
97.9996074965248
98.0330636533839
98.0164193413419
97.992079487897
97.962824228094
97.9769433018887
97.9412170258722
97.9014634333863
97.8750074281895
97.8458907866256
97.827094030597
97.7942408488996
97.8003389104174
97.7170305023607
97.667554637013
97.6323981367154
97.6548259179512
97.5428909217234
97.4987603317746
97.4786365048939
97.3717649111326
97.3270720618488
97.2538286401304
97.1701697718832
97.0722532805954
96.9489888277101
96.751470031625
96.5645458671587
96.2527039280208
96.0276136686528
95.6095358670725
95.0345364788305
94.2320004597283
93.3163816495702
92.0901669839554
90.6057207815978
88.8031752090452
86.0729513652174
83.9371149070333
82.0452531102502
78.8071250400652
76.058817180753
73.4004724695163
70.8782573651525
68.5312559977718
66.2369898571252
63.8958389373323
62.1341350577618
60.797214533066
59.6209784504021
58.3260010140261
57.1316554904521
56.4029673218388
56.0977168714269
56.6576794926676
58.5690686245348
59.5576193955011
60.7126967097575
64.9434096403041
67.174706207105
69.8305861583553
72.776745705281
73.7575404409425
74.533395929796
75.5898121262745
75.3969981693538
76.2513696117584
79.4640908100414
80.7456837333087
80.6639420738545
80.292498693203
80.9232742760115
82.2634608656267
82.4416526284521
82.9507819129074
84.4778508602987
84.9977862939663
84.7493303648124
85.3037548158144
86.3242482661543
86.7271755008643
86.2491805922236
85.0054263977407
86.3084911257485
88.824492257954
88.651847835477
87.977568439496
88.8621755332242
89.6121880714097
89.6115162554948
89.357036530188
88.8859437613571
88.8995702039327
90.124577234771
90.7566464024727
90.5645872160441
90.3877859182251
90.4984330133131
90.6657849863695
90.9167837021303
91.2515295039399
91.0947378621843
90.6856686326618
90.7375836600567
91.0039778887977
90.9336205318105
90.8826807443496
91.0743764804334
91.3614283089267
91.6245820739914
91.8509417904422
92.0815898158898
92.2877956605074
92.3939242802555
92.4570659809599
92.5915217247813
92.6712681893793
92.7071555826078
92.7322572994579
92.6507062595314
92.2577419196667
91.5450863937991
90.4668011728033
89.4103331262582
89.1959774097992
90.300882467139
90.9883421573207
91.2506769794731
91.8708035169979
92.5901855523311
92.9702163172507
93.1000150530884
92.8966895293274
92.6055962882236
93.3442653124364
93.9130574203733
93.9156508311344
93.8915088113928
93.9610645208671
94.0246155514883
94.0448759177698
93.8874008104039
93.8178159372585
93.8837307927991
94.3664576868308
94.5241397420904
94.428742345409
94.2916739675189
94.4027927584605
94.3742039355626
94.2546276106193
94.2584000540721
94.2467573097339
94.3066081105569
94.475904541754
94.7104944138662
94.7078072727412
94.7521252799522
94.7351741412585
94.4177215928508
93.8737400949962
92.8200785138925
91.2523955973374
90.880409550915
91.4103969830344
92.4486857568895
93.5855458708923
94.6826249045282
95.3804219727768
95.5944197878555
95.5463276743058
95.6156112209811
95.7406785329243
95.71724966317
95.6132081966291
95.3726789077396
95.0125021680085
94.5959880394972
94.0764561715303
93.6832196364482
93.286414760805
92.8856526716947
92.2793866452488
91.6526145785334
91.1229942628739
90.6577124353311
90.0384852328166
89.3472388856057
88.8093165659362
88.283984437628
87.647397611616
86.9299428590135
86.6702133439895
87.0082392200364
87.7916880783124
88.4687769807414
89.0816867118374
89.4987549458488
89.7295689814679
90.3148621544451
91.3947379889748
92.055599008278
92.5419487086213
93.1399976708324
93.5796052446577
93.8031103742947
93.883833522971
93.9186943163458
93.7359014291751
93.1305786889042
92.0879658977206
90.1631803863301
87.0856427556899
83.2036559967396
80.136455921036
79.1149319315906
80.4320957890054
82.8345900551145
84.655601666997
86.0844830738037
87.3239000483182
88.1008021574338
88.7309882486101
89.1904474727254
89.3115457177402
89.4021929281648
89.7276971572692
90.0771867747343
90.1531045376774
90.0273668278857
89.6576663660676
89.0934467416601
88.4752802754818
88.0313305924541
87.7881996382526
87.7044489608669
88.1270146435621
88.9593848367794
89.9810276750278
91.219355938653
92.2846646822013
92.8778293260838
93.1995832215609
93.4023058701042
93.5343047326131
93.5804751551033
93.5302885131544
93.3359200967337
92.9822537570347
92.5046391705815
91.9811734265978
91.5212085760395
91.4415655883238
91.76347578786
92.3077309634193
92.8539616290764
93.2100887611039
93.296752579895
93.1232140865065
92.7446563202915
92.2458022984309
91.7062886289112
91.1470521723318
90.5801242130607
90.0818322257159
89.6633237126292
89.2523618426627
88.7368278380912
88.0574716759381
87.2986721992635
86.5622168695957
85.8075328387291
84.8604170452617
83.591629085186
82.0169273671747
80.2811073146063
78.6060231319858
77.1025937859815
75.7811052414232
74.5663737050159
73.3464253275773
72.0515911806481
70.7110370716675
69.3481927703312
68.011752037142
66.7191838287648
65.4460942908615
64.2003721465812
62.9629865331892
61.6667221092678
60.3140846723541
58.9075518521728
57.516542862345
56.3019697820188
55.4011714038177
54.8597159181076
54.5903766111895
54.3671959925069
53.9893106992546
53.3871768117867
52.5783197425856
51.6116710943996
50.5634423532208
49.4837460623253
48.4503302285069
47.5616122587853
46.9494504632163
46.7017801519723
46.8603583790679
47.443200159333
48.457960826693
49.8655974387773
51.6109985289648
53.5303464098233
55.4049738916237
57.1465648827038
58.8821568677176
60.7044071190057
62.5564796593952
64.3547574258036
66.0860991512849
67.7279342111862
69.2521497906946
70.678841728956
72.0504029523082
73.3524628364756
74.5963581202618
75.7994005107258
76.975819696799
78.1173961707057
79.2246236570079
80.3249124552307
81.3978337644598
82.3492914240922
83.0958262312408
83.5782797843553
83.7194953623333
83.5020184327708
83.0319542098984
82.4847119246073
82.0915748861837
82.0920041773146
82.6800787776725
83.7764591932877
85.0153648910244
86.0524351312788
86.7971464786659
87.3047857833731
87.5811215697575
87.5957383529384
87.3930248727499
87.0370196117644
86.5746495552014
86.0231870531793
85.3448649638567
84.4872638709522
83.4240397095841
82.2144649533474
80.9711878996374
79.7376393365677
78.514134336407
77.2825519566507
76.0229029311176
74.6802667675195
73.1615448647874
71.3998217335959
69.3927686626084
67.1904414622081
64.9322029915796
62.8283387113266
61.1278628176641
60.0504729541355
59.788333145378
60.3272376880298
61.1639627775876
61.4153172138231
60.584597243418
58.8125702129453
56.6099889065809
54.4070773734447
52.3873970148827
50.6278357622534
49.2057212246225
48.1684043249765
47.5121845266382
47.1673650230201
47.0400913642653
47.0395745332623
47.1100398266008
47.2489062336601
47.6232799786407
48.3843573713224
49.5916782472869
51.1897358865354
53.0045543445773
54.8308095892329
56.5907119734426
58.2517185308144
59.8342794845656
61.3520072515246
62.8032314489246
64.1701664079729
65.3988353611952
66.4110408085499
67.1540014408517
67.5764065127532
67.683815553237
67.5449184439753
67.2291183719871
66.8371723086897
66.54555815154
66.4604456045471
66.6293698854078
67.0480640247408
67.6499762139042
68.3453565445539
69.0880757850094
69.9011303434299
70.7924097840518
71.6516214173711
72.0728691800513
70.9763275646049
67.2552384108692
61.3370371145792
55.4905519371349
52.3560722406691
53.0299169885567
56.0671249764839
59.4111103060617
62.2927984463388
64.7117330522675
66.712700856802
68.342569298739
69.711971764998
70.9173284668575
71.945285590049
72.7737269747586
73.4330815843464
73.9178467468793
74.2243971470332
74.4363586628394
74.5987963925252
74.7437233938163
74.8443362176728
74.8534928872393
74.6987717486628
74.3353783585849
73.8826249239813
73.4474560669395
73.098882754347
72.926130025327
72.9030667837763
72.9780990657557
73.0412175038178
72.9099138714426
72.4998453795732
72.0122243561042
71.8092574107564
71.9811681824755
72.3186073930663
72.7030530710736
73.14720340888
73.7339788099321
74.4994207103373
75.3425532348649
76.1706454480058
76.9310818754243
77.5929050799468
78.1607597174378
78.6166003767956
78.9962021899246
79.3698876948428
79.7428230051813
80.074105652975
80.4016476308791
80.7943463230948
81.2480709653297
81.6535197162828
82.0276727570442
82.347737917378
82.5352227794673
82.5996506917208
82.5087290257614
82.1817882568243
81.5987676367776
80.8445637443098
80.0873260462411
79.5140169282203
79.2149795350285
79.0953950997525
79.0819140329947
79.1499220584123
79.2421182315545
79.3273614152795
79.3350081091136
79.1530215456012
78.5847551568395
77.396997708193
75.5071415414751
73.0554732386716
70.327522459828
67.9455555033458
66.7135568334051
67.0438652390085
68.65380750118
70.7387462894394
72.692394299545
74.299401994565
75.5573090067728
76.4566397589818
77.0320992836945
77.3394328653618
77.4712263306942
77.5405798623584
77.5959123964422
77.5726159499169
77.5404380105463
77.5629004393953
77.6670760663683
77.8654771815923
78.121627263407
78.4554559532671
78.8478092147461
79.2549494307181
79.6045166427574
79.8922238046112
80.1704035207359
80.3594414631459
80.4518731555214
80.5535838921707
80.6895197182997
80.7697111676386
80.7901456078769
80.8294339096679
80.8612985687621
80.8009510450378
80.7589114281961
80.75711822735
80.810290237384
81.0019477590407
81.3689337012703
81.6629644297092
81.0763220268502
79.3368444436208
77.7935301040088
77.7128670363399
78.8327072146643
80.3848187837283
81.8476960608683
83.1555699213112
84.3340237371372
85.1941967551927
85.8216287885685
86.3416385216227
86.8155305943403
87.2705392085584
87.6821470752634
88.3501286422463
89.1476643040878
89.7709609882417
90.2796887681718
90.7893172449096
91.288975742928
91.74470474734
92.1743548868567
92.470743866019
92.5991442533202
92.611462559341
92.4933643833854
92.3248069261016
91.7724779911607
90.4510644619735
88.1279096704346
84.1402269029008
78.2667720633017
71.4610345292369
64.793195808197
58.4982602469445
52.3952455448472
46.1634025000454
40.4364631744791
36.4099969693095
35.1154350544383
36.3464465341763
39.4538140408
43.7052525658085
48.1840727356811
52.0303651672218
54.88107730997
56.6909521373709
58.0950799797371
59.4547694355459
60.7365311883332
62.1092748569493
63.7170007583422
65.2614570985609
66.8343242547517
68.2832275672598
69.5074517816984
70.5285674961016
71.2787721132469
72.130214615989
72.6097222892301
72.8409205749423
73.0789209685975
73.0738967749587
73.4107900651797
73.9925111792897
74.7997031192312
75.328377014342
75.1158463314286
75.1773330064045
77.2832891286125
77.718644241824
77.0427899022171
77.2043465081985
77.8540704138243
78.5070577409601
78.5588629959896
78.5079800028718
78.6125959253342
78.8494146609119
