1798
3999.43349933624
650.420452594757
1
128
4
101.694162534857
101.761925370847
101.813943466195
101.82915607218
101.735293533738
101.73364616107
101.799886912411
101.747099819909
101.680896303337
101.753589226992
101.843873846565
101.859366293448
101.80186948643
101.72185041641
101.719312962924
101.723900827505
101.734240927744
101.735928628861
101.768980794523
101.775793132429
101.81285176909
101.880246694402
101.851184562333
101.776316629603
101.725545017065
101.655233872555
101.621885675795
101.581337152127
101.613750327918
101.50289280742
101.539879205532
101.721667147573
101.77543461896
101.793061730812
101.575320131275
101.373434203475
101.501431221994
101.689303764301
101.792595849584
101.543595601864
101.579983647655
101.441648477109
101.369889206288
101.463937503062
101.665323860329
101.72331132657
101.801951112423
101.916687617441
101.848282510447
101.643961157402
101.393747955658
101.380688465383
101.338658211287
101.441817255805
101.618340421432
101.630820213523
101.683466191637
101.497171203352
101.556607382972
101.631779305772
101.497677520708
101.628788077688
101.412202151014
101.3918824268
101.652906782797
101.708938108523
101.339304234088
101.575626851929
101.408455879385
101.280168313544
101.497713728039
101.274608331033
101.465205239466
101.416236136802
101.639337646553
101.425904687366
101.390176072186
101.162168370686
101.495952497513
101.625216415562
101.69281405763
101.659178317148
101.546845138592
101.337586893267
101.243100051856
101.246348824867
101.332508930504
101.254934388511
101.396003118863
101.433744223717
101.629213324967
101.560836738459
101.55104752088
101.641769250983
101.460519325281
101.218619316667
101.552219731983
101.248944671538
101.475864076974
101.608192733266
101.553732781371
101.667585109899
101.460595397381
101.578754237561
101.650359028079
101.265542418004
101.549139575209
101.450099500127
101.371262445874
101.67528103428
101.720868024959
101.711404538256
101.66484706074
101.699693712476
101.579330696891
101.599641869724
101.650053577508
101.530599926796
101.693927554268
101.602123222634
101.616509959075
101.706603048951
101.52371282735
101.556350411676
101.458392500977
101.419457016769
101.635909242523
101.381531152392
101.456295983637
101.37757090261
101.490807348103
101.329748358256
101.406902262475
101.184184098063
101.266749646165
101.092747356977
101.075230991931
101.522256939915
101.170728197811
101.491308084559
101.211834883621
101.108373480253
101.034698127206
101.294983495516
101.471028636382
101.223663986838
101.3766154098
101.404510008429
101.314364159663
101.429874960104
101.412660935717
101.613883917675
101.497653255913
101.340361374344
101.427238233825
101.663981954545
101.702256059925
101.739962787425
101.654196556798
101.507252986829
101.627085930365
101.687512064284
101.719935922683
101.628854991738
101.344143317277
101.393592793262
101.392934710833
101.557629297365
101.315730812459
101.473712364635
101.42295833537
101.453061781181
101.258010912296
100.81699373506
101.239533378533
100.884133003191
100.806363317947
101.100327210785
101.153234017401
101.155004860644
101.166486807012
101.112344837315
101.128935848803
100.913553332059
101.092599708086
100.805190781933
100.380822442062
100.349344094735
100.305557146954
100.735465917067
100.830598127107
100.853454376502
100.839213834757
100.710028529095
100.747247103752
100.589493284759
100.668297474049
100.207615853415
100.157845227103
100.680819381748
100.632087974414
100.675810831132
100.541984029328
100.48927650272
100.499731668523
100.41904343718
100.072020309301
100.395976554388
100.558563360679
100.470069972441
100.611959621148
100.874275850246
100.834639677519
100.779996704888
100.765060684275
100.650674108026
100.694320052037
100.855379740693
100.811896662263
100.339017790955
99.9897432842322
100.427347587204
100.623416743933
100.719480306755
100.764612041347
100.682645273121
100.592634173467
100.661017332613
100.614855061051
100.502610526444
100.229348124346
100.040498644648
100.096499795225
100.192285630136
100.206627122252
100.180615460267
100.0971275334
100.110265034472
100.259226414736
100.304241635534
100.180487871421
100.115748657635
100.215362954811
100.191981426382
100.245044975776
100.353724082596
100.296219620875
100.20080320975
100.266245036194
100.429872669813
100.272772085853
100.022136794748
99.9855373546313
100.071665836456
100.047093446251
100.055062184887
100.03490781809
100.133525612062
100.305608280409
100.333546218074
100.37490374697
100.306810030076
100.210615658487
100.221023548553
100.253172880865
100.270505715086
100.232204983485
100.296807542633
100.334122472289
100.295672899421
100.435214852893
100.454993893494
100.326025169134
100.134838615694
100.127533121914
100.318655974883
100.309118005105
100.220661474863
100.139625513087
100.153929670507
100.237309058139
100.160067870166
99.9597618637996
99.9497564871974
100.124585343701
100.181640995396
100.149686554015
100.142460978037
100.151448930404
100.208273607362
100.035729036853
99.7893603911989
99.8519295233416
99.8818295060526
99.8345830904185
99.7255563023717
99.6385225144703
99.5068415312061
99.3816564867747
99.2486502884559
99.0000319567367
98.9641303293618
99.2408766920061
99.3781616948866
99.5246140482236
99.6823397394337
99.5293136962376
99.3459325035601
99.1947682237332
99.0763567805098
99.0826449938974
99.3304374154009
99.3817302254894
99.3002591882716
99.31172752532
99.4199872161209
99.4150150239971
99.4065110670965
99.4341178939586
99.3705092061346
99.535220243082
99.8224568694662
99.7605790099084
99.7460365515414
99.748492062292
99.7896835174954
99.9369452830195
99.9935336688736
99.8363097202382
99.7154135057
99.7049706462361
99.6635638475033
99.605762091411
99.649075556145
99.7256695624337
99.6913237283962
99.6318067937743
99.5647301893537
99.6930602877682
99.9022253353261
99.9460146775798
99.8654846393328
99.757913390683
99.7713978638943
99.8500756125797
99.7766737238761
99.7540233479697
99.7169648596321
99.765101910931
99.9208283099718
99.8517753403432
99.6771934292004
99.6244688442642
99.7310550673186
99.7053565403885
99.596617162939
99.702270066588
99.8495658243886
99.7579140723889
99.6901750637047
99.7778931454943
99.7822061832323
99.6910863237963
99.6783910532564
99.6310342587885
99.5711481619749
99.5904189754982
99.6632079307095
99.6530724780294
99.608112582284
99.6100131971719
99.6918762693775
99.8520095319424
99.8550312387966
99.7095862402767
99.6018301618498
99.6314220922089
99.6523973289117
99.6435426422059
99.6335743379925
99.7053569756162
99.7298484961473
99.7461777070339
99.7534790990989
99.6812892868547
99.6311544185259
99.6645133340193
99.7330256623892
99.7869096115881
99.9025718280343
99.9122082558237
99.8557965873966
99.8797556415212
99.8827708708597
99.8362348558835
99.8295215258411
99.8183559245157
99.7320433614121
99.6742821266517
99.715916948378
99.7495996367621
99.7142596193664
99.6838800117673
99.7536849568738
99.7928780541882
99.8299920352506
99.8770771863218
99.8767294402406
99.7968129713908
99.7900856228033
99.7869391963853
99.731074962358
99.7265477489211
99.731836549082
99.7495822703774
99.8024522276696
99.7874361842857
99.8703648709562
99.8590466813853
99.7573411325984
99.8292196844664
99.9434894842619
99.9538543179728
99.9519423822492
99.9104475301962
99.8862899801629
99.9673804623706
99.9527914343769
99.8991057200124
99.8472417303187
99.8301344191886
99.8648762120227
99.9588308373472
99.9876220849705
99.9392310197842
99.9002021820681
99.8367189506468
99.8777824419173
100.005328514024
100.051553950638
99.9534555646058
99.923713554371
100.038883498383
100.116426473384
100.017893712164
99.9934120773582
99.9978612597482
99.9597184790904
99.9796748057741
100.055640909684
100.017552766437
99.909799901325
99.8971156933349
99.9516432269599
100.068646899837
100.0467575817
99.9704745628024
99.9717166673444
99.9809524345541
99.9500124034947
99.9348290280555
99.9652810730037
99.9889426975335
99.9656368564437
99.8803488423716
99.8166475086086
99.787570047753
99.7969654231947
99.8787346247308
99.8887817045347
99.8103179029008
99.798659825892
99.8534002437554
99.8868305018389
99.856186294533
99.8054335329823
99.7596032237931
99.6964370535813
99.6992932969699
99.6874506325666
99.6244459853366
99.5639228658238
99.5303036314998
99.5772489980086
99.634965790774
99.6433357003496
99.6513761845032
99.6707127431273
99.6327669840411
99.5329307377391
99.3705200847288
99.2932956144798
99.2839395916497
99.3260468412677
99.3906122422263
99.393264009243
99.3134136696642
99.2535991407171
99.2792375539201
99.3288124326913
99.3570250017447
99.3152729843598
99.2485853237779
99.2668891759333
99.3327205904069
99.3336524979857
99.2514930261914
99.1975276098554
99.2935861822501
99.3862526037246
99.394083782199
99.5263066072306
99.7217159000523
99.7951212203576
99.8250072151745
99.8749607996535
99.9441088106734
99.9520380336793
99.8980019391455
99.9324491782606
99.9437263993926
99.9130464181469
99.8014711955187
99.6848348917112
99.6991889432339
99.7243281944856
99.6716570570621
99.603050234832
99.5092817607179
99.4447344241154
99.3472156517009
99.2211929873733
99.0848081316915
99.02133314702
98.971224765546
98.8634619105531
98.7666681174155
98.6197768908877
98.4695483130621
98.386790214059
98.2621379656911
98.0654134424022
97.9098565307766
97.6824380682587
97.4643870480759
97.284345642604
97.0471379361214
96.7971657924683
96.5111916926615
96.1384592149427
95.8461900596611
95.5253645051197
95.1025035925105
94.7111146272148
94.2926234977043
93.8587262385614
93.4604023741795
93.1185394423732
92.6878942404035
92.3260856047619
92.0792665161577
91.8583029273569
91.5691230552809
91.3344644318731
91.0839739610524
90.8666699830353
90.6438017893702
90.3423546159092
89.9898407756767
89.6480972157434
89.3585819102393
89.0397780403142
88.6816737265209
88.3744745543149
88.1470495066493
88.0047717683197
87.9779780001895
88.1352856538744
88.3484225282668
88.663695847021
89.0948192651907
89.6228296148975
90.2357013804036
90.7646686016519
91.1825623102988
91.5453531347258
91.8509776453504
92.1517446331839
92.4892199998091
92.6723885581607
92.748098873507
92.8630256636715
92.9278657075221
92.9922378723787
93.1018078381767
93.3341102401857
93.5989075152107
93.8520949416773
94.1125485792917
94.4114086150376
94.7044677288272
94.8861162277363
94.9638048371231
94.9305179216438
94.7911167378419
94.6294081492644
94.4907944370687
94.3301915077431
94.1203692465552
93.8498664385383
93.4141731836439
92.8845319473147
92.4292673128914
92.1028594202446
91.968570430477
92.0747919031683
92.5135953264573
93.1133252079367
93.7996729680491
94.5466631116235
95.2760313785638
95.93962734942
96.5143340844499
96.9511194181074
97.2623738115731
97.53637852776
97.8025987170531
98.0758617035529
98.2255996602439
98.3236845982182
98.4715718488265
98.6230906292238
98.6951591407235
98.7007906172919
98.7313504575175
98.8110574286678
98.8599939977441
98.8937174554097
98.9500618006593
99.0154052675445
99.0276798655977
99.03677196901
99.1058979996509
99.1409571979938
99.1561136814859
99.2242637646043
99.2582806412769
99.2518725759025
99.3566128391126
99.3974718330586
99.3941752253563
99.4473132034352
99.4656186567958
99.4294668048055
99.4439045861412
99.4897919169353
99.4890557020351
99.5423737563711
99.5780535419527
99.5772724923765
99.6135330635242
99.6087944383642
99.5868465641674
99.6084794059553
99.5853647583374
99.5587260910553
99.5664510419248
99.607465301634
99.6432592620067
99.6379396144741
99.6593222944599
99.6776239565277
99.6924105441959
99.7556543652189
99.7591236193201
99.7252384545389
99.6958728947447
99.7022135482354
99.753068625419
99.7896422770942
99.7563788375547
99.7512903099379
99.8018676923239
99.8259429838244
99.8334135797775
99.8607129003312
99.8804466887769
99.8445361844268
99.8198297294751
99.8679415548162
99.9025888846009
99.9065893785303
99.9219826184171
99.9388559173064
99.9705962345841
99.972315763968
99.931730626801
99.967403258189
99.9972766067289
99.9783778422545
99.9667372937533
99.9451053323764
99.9704395057365
100.021334037254
99.9681993211918
99.9764382561532
99.9942661615742
99.9628452607714
99.9790979291045
99.967570606513
99.9450512560145
99.9367906408792
99.9240515427946
99.916476491794
99.9294274965905
99.9535209794254
99.9323319556928
99.9423813315654
99.9619757395859
99.9594539505979
99.9644156825986
99.948632886099
99.9309959367786
99.9780942129078
100.029099706736
100.032419872951
100.045109546145
100.048759124822
100.025990920759
100.0278965598
100.062233674629
100.033867183764
100.02168669918
100.011619123042
99.9976082324249
100.03093704909
100.027551572872
100.025952821045
100.074905546128
100.098956922666
100.064117108425
100.137341478221
100.196431819806
100.189941737621
100.268226644152
100.234044248945
100.091120966302
100.155648956844
100.259920057805
100.281009040484
100.286232638551
100.299086319477
100.29543059493
100.265569363845
100.250336652887
100.288088139297
100.299917563849
100.323696068459
100.377346961225
100.409899605991
100.392107252227
100.337510789924
100.335552858902
100.36533576084
100.391931768655
100.387953164397
100.258858532788
100.302382799632
100.37857813542
100.37404715159
100.3627456378
100.437169366397
100.437731085813
100.407800850652
100.412486543733
100.391124571354
100.349636716182
100.355553747382
100.272896049887
100.300599436255
100.37751624578
100.451642775929
100.498953435782
100.479378884301
100.412717629562
100.403296601572
100.359101636332
100.273544817099
100.296975494641
100.290063913897
100.272422394942
100.30226204282
100.284495204615
100.304472541476
100.324525376034
100.337458020563
100.274131535201
100.287722709279
100.348157589736
100.412151343675
100.437049798577
100.413624882576
100.348997410069
100.355317616029
100.398320826563
100.488495255733
100.563602181874
100.537165865612
100.503917480117
100.484781609731
100.524247878001
100.554275370234
100.471113525605
100.509404013157
100.574121931363
100.589528504448
100.592701749676
100.516497252598
100.473048325273
100.49772408672
100.520491992987
100.505252799121
100.463316824035
100.522610898798
100.6019274851
100.59886864248
100.551179618525
100.521528622962
100.422287310401
100.36793973654
100.533977224514
100.565768680976
100.493935922777
100.54576624468
100.565520652645
100.590942510284
100.614857442517
100.629836390697
100.591880958442
100.541857984481
100.524452162438
100.515834596511
100.493963844853
100.429777998174
100.359754520428
100.376969850932
100.429024010709
100.412215257481
100.41542764501
100.448450724576
100.420199806893
100.408385103422
100.329589982771
100.318834765129
100.335232173851
100.342603817108
100.289253742796
100.159094568887
100.107976232534
100.151861093033
100.140538911361
100.126938451931
100.18063953387
100.214405001088
100.180384689774
100.097830313464
100.023278662279
100.01729640764
100.036817341081
100.016236030377
99.973561918979
99.8759648419802
99.7050147218716
99.8920450955434
100.459893045316
100.514981503392
100.390964634888
100.454833305146
100.394836775657
100.500538733156
100.499424947154
100.462920949138
100.439591397677
100.468943653863
100.434647283363
100.320070550446
100.387787424686
100.445274639301
100.474526919279
100.531821018131
100.491050343272
100.389183122035
100.23967695232
100.322815421531
100.518621392482
100.425127604355
100.388704394864
100.402050393081
100.221945684373
100.146224157531
100.123690425084
100.14963206931
100.186815360968
100.303855343478
100.378735316508
100.381210148085
100.359166574136
100.379565139956
100.392435912316
100.41506830884
100.38882036588
100.405383195996
100.468013568236
100.444421177609
100.38107503301
100.473523942983
100.452329481257
100.450111434888
100.488204486353
100.449119407088
100.427349960049
100.565663272719
100.570869971942
100.587308979266
100.620981836959
100.769357132305
100.904637578111
100.919803670678
100.849901954955
100.879377154068
101.02226887993
101.234232767004
101.243217099806
101.180970308333
101.052468417149
100.980469618871
101.018446687484
101.156785598502
101.206397080616
101.354118666194
101.379842879153
101.449849769576
101.390791284871
101.095967788216
101.005040559376
101.094520547215
101.127141918674
101.332396485048
101.524872450244
101.620785084317
101.390347825591
101.202967017123
101.291459018086
101.517821837736
101.550944595573
101.736472248066
101.666587809368
101.573811804907
101.665484427419
101.831602060907
101.696648835901
101.517108003303
101.504925859127
101.596605941497
101.539185543931
101.537560691019
101.538333542814
101.902757965288
102.058465504229
101.982234198988
101.798335509356
101.987180490847
102.195998849992
102.150185919286
101.938109709801
101.967555344494
101.797796330397
101.855784721857
101.853824376255
102.051976153075
102.068177727259
102.028326095084
102.06696200882
102.295051246714
102.338757600526
102.473544318825
102.558822633277
102.781986437106
102.253958741082
101.77311638848
101.497927166545
101.369761938279
101.576807698764
101.849462356567
101.808788571943
101.541369248502
101.367650620992
101.256310357266
101.18357757074
101.298865142444
101.221284458866
101.063112294362
100.930718262648
100.956629051934
100.938151099974
100.836518030923
100.66884281312
100.730897856446
100.863413953681
100.903109222045
100.825409589132
100.721220973426
100.615627285128
100.682639552538
100.639281159864
100.737385067033
100.703873339987
100.578380140762
100.571427665153
100.642186302535
100.652306749495
100.763909139226
100.811645316524
100.757824716706
100.706469756996
100.781438448878
100.694494462998
100.71427015549
100.740669119033
100.836157775148
100.839183891468
100.741127710067
100.707957108706
100.823910816188
100.894861353665
100.974691869329
100.978674809937
100.959077273893
100.966747854684
101.057063233815
101.109925335102
101.161061885689
101.056275113194
101.215331473888
101.337745671369
101.539531707455
101.600655039681
101.735962349552
102.052675415357
102.304941934487
102.28673668401
102.36805546184
102.594624740997
102.471251950099
101.788716930395
101.810263672464
102.093299223581
102.028174386715
101.712796104835
101.718549947123
101.614042916942
101.698246084403
101.425072215474
101.450161175648
101.591719675358
101.753971728157
101.645735372099
101.737439305223
101.712691395801
101.642333045588
101.383828031982
101.278693173663
101.15552686605
101.160968421917
101.154562969765
101.403392054852
101.209569741187
101.066509074618
101.230929800769
101.470113440951
101.305401122175
101.220140560743
101.244865105489
101.410407577633
101.448676916302
101.777344949912
101.823004872048
101.701671557934
101.116517564805
100.873012764283
101.011398687246
101.04728046062
100.725716162062
100.705132863126
100.663565780957
100.423218614409
100.229769368778
100.344388198122
100.28892851658
100.150108893641
99.8864330325747
99.7761037213125
99.7524434382522
99.8763624409828
99.8521736427016
100.069236994093
100.056324622555
100.090092718005
100.076242496384
100.066068616305
100.200596649596
100.404810765969
100.16931027554
100.008146348982
100.03495021243
100.010667794777
100.009728216887
100.000085384913
100.054818015836
100.292782074144
100.234466087545
100.10228604785
100.052173766849
100.179304585613
100.203175812258
100.235661937695
100.099936723154
100.028484209756
99.9969216757744
100.097319180441
99.9950109033121
99.9762667096815
100.004787067302
100.106907331875
100.131713876808
100.123492025869
100.112213392988
100.201673918451
100.206302352033
100.240955511172
100.262316935142
100.150936447638
99.9007154108901
99.8286751712982
99.8490402913771
99.9935943137931
99.9670567723061
99.9989481348749
99.9863815011098
100.026613940223
99.9686330936133
99.959850746201
99.8178533221154
99.8510518875481
99.7100152304338
99.5002348574447
99.3877660333249
99.3191748939719
99.3781473671987
99.3529638936474
99.2344616341859
99.2495433238169
99.100122259867
99.0177104640032
98.9475077139012
98.8396022480404
98.8792952684111
98.8506344249507
98.9328320519348
98.9430497053419
98.9350878357226
98.9326121392303
98.8888153995337
98.85191845808
98.78293888766
98.746576985669
98.7626986618572
98.777179017378
98.7389370948875
98.7018417546783
98.6508557493305
98.6523979744257
98.5686181764415
98.4472057019705
98.370415016761
98.3459367422198
98.4321694382419
98.4446834065382
98.4001279071128
98.1683694340611
98.091018010827
97.9937243098281
98.0403161261452
97.7959867395925
97.6704100093078
97.5252001830379
97.4360164075712
97.455668749298
97.357321386357
97.2539247017826
97.0570759281433
96.7630332317693
96.4736722656532
96.1873381512293
95.6635309960014
95.2288874815247
94.3466595010035
93.3589030911484
92.2270647737134
90.8419463824486
88.9508601168706
86.5996450945052
83.8066385287927
80.21938109864
77.2075763451585
73.7397604963404
69.5104658223939
66.6814661566052
63.8337307036714
61.1736962803792
58.4733071581613
55.8764724008111
53.4445552814467
51.3019479867894
48.9261074616901
47.1984534393002
46.5065360992095
46.4654452588281
46.8694151396004
47.4771706366576
48.7496735744222
51.2143862021143
52.6205884668685
54.7696664109375
59.1037260537546
61.1969785190766
64.5282444077244
67.8976318588947
69.0588530541782
70.2620484768847
71.5175405991153
71.3661596151085
72.5817515824632
76.1199773846159
77.6622366568689
77.84440292283
77.8661046092033
78.9012373025548
80.4662190873242
80.6654931289307
81.5132637398121
83.5182034847768
84.2634295681708
84.2569265289789
85.1713437991442
86.497102286999
87.053585408529
86.5101382307378
85.1119714937888
86.6064415227753
89.4675267893795
89.2454437511821
88.5718913178685
89.743736585367
90.6545406894765
90.7352069743964
90.4847852732793
89.9210267268083
89.8162577464128
91.1853527212893
92.0061052394568
91.836662192185
91.7197981838622
91.7931053552379
91.9145148326076
92.1230033535684
92.5149182926317
92.2569830069019
91.6147718699013
91.5261394217829
91.9145000345084
91.9415213034078
92.0702552940555
92.4616989171691
92.9353650302245
93.2887821996063
93.5598053585229
93.8934363699783
94.1713225823485
94.3231954035024
94.3889629555475
94.5130021377529
94.5691832587804
94.5409061892676
94.4197532397737
94.1506418363602
93.4162537806925
92.258957315768
90.7071219122173
89.4707085027116
89.3715192633813
90.9786584015142
92.0497240988398
92.5096880773278
93.2418222575428
94.2233389346121
94.7073499868263
94.8016447472345
94.4470735749652
93.5962540881706
94.279829217961
95.4099813766544
95.5425232211157
95.6384804613606
95.7560127068941
95.8311958276943
95.9043602045891
95.4743736109416
95.1770902957656
94.9995104575562
95.5483364387374
95.9869252133338
96.027849689259
95.6856268471544
95.8074263313467
95.7866561498073
95.5646525268613
95.455105927732
95.3283899923725
95.3175775755258
95.3868989554489
95.7801428453911
95.6764031503581
95.7577016284815
95.671026681126
94.9376492739188
93.7874935628351
91.6111410488191
89.5894184084686
90.0127965802653
91.3316416496645
92.946108633744
94.3879902534952
95.6689629091292
96.4828100404013
96.6753089256027
96.3517711122487
96.3486911519465
96.6099208033171
96.6269663357298
96.4608141969679
96.0341264607468
95.4843446460752
94.827623845439
93.9422319562694
93.3003170500764
92.7237918792872
92.5000732773376
91.8910772911736
91.0550327062813
90.2037247719359
89.6062479331398
88.7949180027354
87.6006444205013
86.3359467353362
85.728825679127
85.3237865320197
84.6802281537594
84.6107952658729
85.1312520548217
86.2600560036927
87.2570225710778
88.1337008975376
88.6763105571308
89.0447218309119
89.7797256521762
91.2507589156628
92.2128043999588
92.8687358636805
93.629967648427
94.1465276670602
94.2859321130806
94.1420429638631
93.969675065221
93.2459256567756
91.9673195265411
90.4138423437954
87.5437545016253
83.2205605156668
78.3940227240899
75.2882823966838
74.8964782424957
77.1803399999459
80.4284321802264
82.7795098309452
84.4644615097629
85.8359181023573
86.6270606699705
87.3486427760307
87.9478172421526
88.0515256342859
88.1004316442593
88.4835095457257
88.97962173941
89.0267233845203
88.7655483000795
88.1648450514491
87.3609640963621
86.4899532599143
85.934774630056
85.8158415224685
85.9348617223141
86.7107795440238
87.9721805491074
89.3580114058254
90.9122595949941
92.2412183177845
92.9281736529911
93.2672716981627
93.4601620745117
93.5633774399632
93.5229609940545
93.3632632769165
93.0489155953583
92.5402864368881
91.8563729296417
91.0873957344851
90.4514392168798
90.4894538620905
91.0884858672897
91.87632298434
92.5192951967323
92.8354905756786
92.7665799807849
92.4007991367935
91.8301809135222
91.1132966194739
90.3215393037714
89.5147236363458
88.7827941518491
88.1685901742687
87.5863417702619
86.9967096155211
86.2684348576446
85.3370085636627
84.3190123660636
83.3095545988838
82.2727509423987
80.9817356408114
79.2780670250289
77.2861413739434
75.2239577924732
73.2850549239349
71.5610457990045
70.0619592940852
68.6675759603794
67.2877849316899
65.8361031669463
64.3178158893245
62.7770233624547
61.2845795137312
59.8344221148221
58.4142805944312
57.0043613025145
55.5842142926178
54.1449654081098
52.695819760937
51.2390834780548
49.8560540501203
48.6821105325202
47.8400773780069
47.3573630462003
47.1076139455074
46.8266522459786
46.3611583655367
45.6918308972064
44.8613995104651
43.9371656675896
43.0116922934663
42.1443957853888
41.429007996092
40.9593478534263
40.8258701277411
41.0325340514939
41.61553637047
42.5767462722163
43.9070695598076
45.5569060396026
47.4529219606305
49.4458802683851
51.3697431068608
53.2077820321986
55.107473928863
57.1131314342805
59.1449330338669
61.1266994836455
63.0385092518436
64.8471475449839
66.5476658807984
68.1358947304139
69.6655886006291
71.1357930289158
72.5379207013783
73.8885874313766
75.2065108394054
76.4866705384693
77.7254484768307
78.9246339465437
80.0504205710101
81.0012806348344
81.6877231418191
82.0086459574267
81.9032299619304
81.415988999691
80.7217980315821
80.0330617160864
79.6241202138186
79.800098322493
80.7148566088744
82.1744465724225
83.6872693179599
84.847138633652
85.6203829678539
86.0790591452316
86.2103909692684
86.0270905739072
85.6032729842368
84.9928091223087
84.2814855317562
83.4645938901634
82.4750347411277
81.2598487677502
79.8176889212541
78.2430766740758
76.6677424742273
75.1311728361698
73.6105382039203
72.0935666085389
70.5519387984883
68.9188430890408
67.1152726425624
65.0572233610443
62.7729290780287
60.3564041927269
57.9964483631412
55.9281915102573
54.389889914235
53.5308008361432
53.4722902138606
54.1205710337561
54.8819364513505
54.886733791436
53.745400974795
51.7636030837732
49.5269030089533
47.4197859937231
45.6019293691137
44.1442071723932
43.1023521732077
42.4474323729319
42.1313398628848
42.0781230383093
42.2212189182752
42.4611665615363
42.7716139799348
43.2043913898077
43.9130793004816
45.0140361530791
46.5185680212889
48.3094464846333
50.2483443083344
52.174017641162
54.0306935544257
55.7838703680689
57.4389887070322
59.0117913079666
60.5084936249032
61.8787342634116
63.0553515858104
63.962574858614
64.5431941194678
64.7706569800827
64.7002928014052
64.3920314865871
63.9585847904274
63.5456706535044
63.2976718162788
63.3128412611658
63.6257644185902
64.1860626559268
64.9097530407366
65.684193786734
66.4385064209465
67.1509474289434
67.8646927242576
68.4031497992498
68.1601764871154
66.0366111289013
61.3268698275004
55.1054919521419
49.9872478317278
48.2610012410852
50.2767170468662
54.1586027384164
57.9247337556536
61.0285376594336
63.5685192848647
65.5824513014695
67.2027506655102
68.5838464478686
69.7750767535076
70.7761768672178
71.5694186676768
72.1541538967517
72.5398688540166
72.7505669110512
72.8780745696612
72.9719435372275
73.0466604287813
73.037465068495
72.9141945663038
72.6380879373216
72.1367003647052
71.534681827689
71.0207068344708
70.6596608194886
70.4866948568809
70.4897945550138
70.5976203579005
70.6414434201345
70.4351748840924
69.9380545118048
69.4485569981478
69.3425947293867
69.6799819606599
70.2110760429427
70.7384871251033
71.3237577056384
72.1160369145378
73.0832067142978
74.0874479195719
75.0368239128103
75.9055141636169
76.6275536563637
77.239792733319
77.7509311191141
78.1554892284909
78.549771528522
78.9823887107237
79.3730834388506
79.747548156967
80.15105210982
80.5741343468609
80.9841328617125
81.3670439070192
81.6253081399136
81.7501175511004
81.7353761621923
81.4831655804137
80.9506607945093
80.1460215746701
79.1853061667515
78.303570483805
77.6624242763532
77.36204225268
77.2720433664222
77.2426516531464
77.2841555603876
77.3771893312342
77.395372756779
77.2542994295669
76.8604425283645
76.0050804825517
74.4910310291776
72.20993394284
69.3778780322177
66.5002188946343
64.2558966595963
63.4483046863034
64.3605701288289
66.5224407177683
69.0172570331077
71.2105429528027
73.0088001331647
74.3113230257009
75.1224273352809
75.6350029214283
75.9482549657906
76.0659684538174
76.0792370825169
76.1089143576826
76.0982181684292
76.0730472716947
76.0917191860457
76.2135259433224
76.4878813742285
76.8666024519027
77.2896485087869
77.7280036892505
78.1973434617105
78.6429968798025
78.9685941937872
79.2434513837534
79.4661702725858
79.6223414837459
79.7483039079542
79.9210718559094
80.0127542448026
79.982490457578
80.0229578991806
80.0882445335756
80.0345013349953
80.023943217699
80.0748770936141
80.131572727583
80.373679545896
80.821765240435
81.0341254814458
80.1196966254777
77.9750772258513
76.3615571191712
76.5415983157149
78.0690601093973
79.9447775776207
81.6823825649402
83.2066663149157
84.4652342602592
85.405110714483
86.0254891120224
86.4419137375474
86.8694552034007
87.3578983418052
87.8928401863279
88.6508113648706
89.4679673368812
90.1675715109208
90.7612091589349
91.2787330679495
91.7063922192965
92.1427601960697
92.5594532943284
92.838492526886
92.9090000932569
92.8559221653002
92.6092607020572
92.0760744868974
91.1755578035299
89.4230139349725
86.2437506564026
81.2753116993139
74.6638777351652
67.3685425257346
60.5185970611595
54.4527143197637
48.825572351985
43.3591971795997
38.6273987317026
35.6810088621138
35.3199166494311
37.0667574212486
40.3207382628857
44.5084771746428
48.8815463962114
52.3843939886374
54.7534722782441
56.3557193478792
57.810605633848
59.2016514153167
60.5688321120242
62.0536674332906
63.8733826573404
65.700015771605
67.2933434536451
68.6871156834452
69.9519149350991
70.7701773636419
71.6198883696131
72.5342496894585
72.8522801498187
73.0909160590866
73.3683877264919
73.4344516576133
73.788511156651
74.5171277320116
75.3867157696997
75.9708917545688
75.9393105657734
75.8780467167928
77.9844580714784
78.5778072102909
77.9829697159204
78.0427786292187
78.5325483910925
79.4092154598948
79.7091733414209
79.4011644792125
79.4766892309009
80.0151996291961
