1798
3999.43349933624
650.420452594757
1
128
4
102.010472408286
102.027346145673
102.079323219681
102.017862773172
101.903370909114
101.917612333056
102.011189741017
102.047890618958
102.002290514421
101.957860519952
101.922337863325
101.964988939709
101.951203632024
101.903160357362
101.934021851141
101.919895815652
101.931114900744
101.941460628636
101.998448278049
102.022845393286
102.039822608552
102.075068630116
102.121005754401
102.101972321293
102.002296785199
101.867020481446
101.810812599855
101.761483461696
101.801632153061
101.693664270804
101.724298454747
101.932371226982
102.003926093571
102.045017106872
101.84228797922
101.633517333513
101.76371225141
101.93611574239
101.986175701955
101.773502492605
101.862691173924
101.71882652611
101.664853520333
101.659115167506
101.781057588541
101.92604152129
102.034401312527
102.150556185087
102.084111540482
101.827067899129
101.574708635666
101.676548223504
101.568683359961
101.553082310344
101.793097855085
101.837644624461
101.854812651771
101.700779622502
101.831166351653
101.885574319274
101.560661854818
101.700054509423
101.578658331988
101.479213612844
101.752400406253
101.900205709391
101.525389560521
101.833894084681
101.641432798223
101.568956289992
101.835117861185
101.422835286309
101.48149346533
101.443577806855
101.802882413629
101.748595394694
101.834642332123
101.401134029727
101.337522151311
101.423780511977
101.726379374858
101.875200926169
101.837309364693
101.641822611401
101.529586610015
101.368215730456
101.283504902963
101.302065666643
101.586957638764
101.606637132453
101.846691223855
101.782998692036
101.723825277887
101.883239503032
101.729452131898
101.2838437145
101.546569140793
101.352288603987
101.703092777016
101.900848960168
101.929184548638
102.07838435259
101.667030957599
101.641139604305
101.792279617822
101.376070484224
101.673325503723
101.626878290196
101.487045001981
101.803355971871
101.882479964465
101.922391739515
101.982390770626
102.051652663805
101.868640622891
101.796235947382
101.902407074281
101.740955850039
101.841108227932
101.810001328865
101.91075532312
102.017895364575
101.772171467221
101.739347957837
101.604411710153
101.594797122844
101.921763050116
101.722713172309
101.747824685016
101.589515469264
101.74899299531
101.616938266265
101.783177406922
101.33095062114
101.354747977193
101.197034686353
101.006194779104
101.614731707059
101.432548816469
101.839901593387
101.516051560033
101.403237980946
101.349831928621
101.423129619131
101.559021676825
101.432566622502
101.567276376791
101.485856359219
101.449218203475
101.688437341603
101.729812976654
101.918197048991
101.79298509721
101.620370546572
101.533030936499
101.617267979111
101.744400389909
101.962385330974
101.932048327547
101.768331814546
101.869492032219
101.939672127685
101.959064580844
101.91285257956
101.607947598335
101.500694928278
101.270812832879
101.480350556929
101.421891048459
101.813448066163
101.837620958322
101.858648139429
101.595796032884
100.836253072504
101.26216711221
101.062011272837
100.933448170095
101.16869656174
101.268702392396
101.361727087425
101.433527938567
101.431484176127
101.497726542639
101.138452507262
101.293787180299
101.141690390665
100.720401928836
100.413142540474
100.097799074775
100.608158567212
100.832857995024
101.028191876346
101.042704875421
100.909966216911
100.965959304239
100.779028945232
100.962583194834
100.57259510348
100.383453401418
100.828998581461
100.805588259631
100.907870260986
100.743953482096
100.585670696266
100.710459028632
100.765459592814
100.307708487113
100.501811731691
100.640065216568
100.761448101601
100.975473099701
101.038677611419
100.940783848149
100.911615455802
101.01395950332
100.963045724473
100.928092417277
101.038232530844
101.092705846877
100.806066748143
100.475893313307
100.687113139173
100.844007558806
101.094681904409
101.144931862257
100.948477053886
100.707287523193
100.832180624467
100.994070589005
100.95874421712
100.626464690868
100.221364179407
100.231070510202
100.376796517438
100.380816512699
100.498045472015
100.563614964601
100.606085502803
100.588184255825
100.390873139873
100.402797968652
100.423657171923
100.426330883796
100.364391100077
100.460108752554
100.588364650427
100.553770293981
100.472488323065
100.647113631107
100.78687870733
100.53072454028
100.371819591673
100.322511409702
100.257427881015
100.244552418198
100.379101316779
100.475978000998
100.640101071883
100.680417886334
100.488680703288
100.639027997158
100.760318083398
100.599049202469
100.561385103645
100.684350749248
100.669048578661
100.543291417671
100.584441139091
100.565215148279
100.663457472429
100.952404899426
100.980872575358
100.742596042887
100.411947179984
100.399909810212
100.667352576991
100.709408655762
100.64954172711
100.593314555919
100.515162311995
100.58264672067
100.530999051924
100.370330427372
100.460459958868
100.583678628599
100.530921686107
100.45378438831
100.365562201851
100.496372547843
100.637418124049
100.505545535699
100.229585096743
100.170208940657
100.194100770316
100.213222754223
100.141101846269
99.9782016822682
99.7454049855398
99.6989751418021
99.6113864804868
99.3733866950287
99.3876257551676
99.5872259509003
99.6773751366386
99.7424002597471
99.8383251435803
99.7949010376249
99.8113460051753
99.6078487986812
99.2929151117108
99.3768153821923
99.578054234835
99.5223344722631
99.5334690821045
99.7279916440911
99.8341077791427
99.8389971075862
99.905830872277
99.8539339873452
99.76460566129
99.8472137033399
100.096948029009
100.162467772542
100.162569902608
100.112363706184
100.069615329873
100.193054146116
100.275366142359
100.157343119471
100.122220637107
100.082963117775
100.021780009223
100.074276809947
100.109373336375
100.082445431232
100.040863823982
99.9768824143258
99.9443420520126
100.147885435781
100.276778847881
100.182647250421
100.225943211449
100.233793811681
100.123570823319
100.11031324849
100.103527055534
100.171608683893
100.193834922991
100.139997073367
100.145030305501
100.130486015563
100.037623723644
100.062082253811
100.096077168173
100.037755623546
100.01504208717
100.070502946157
100.114894076973
100.072198126937
100.120051987835
100.162612388781
100.101735109297
100.041067362847
100.027454786495
100.03176914243
100.032863074074
100.0881592247
100.041776804661
99.9777481594332
99.9631765857342
99.9310332297864
100.004473150559
100.147787630035
100.136124593981
100.112007170261
100.017072941736
99.9359765125735
100.015541462814
100.032803238002
100.009525412611
99.9589596065836
99.9434443612033
99.9684679738241
100.032029956611
100.066397529451
99.9989654280046
99.9765775230965
100.053954091182
100.0736873778
100.157921441336
100.122250919872
100.056758376832
100.139871741905
100.12190759819
100.14635899579
100.201093867273
100.220518038367
100.129583040088
100.002313581298
100.000417498206
100.059246369473
100.077285213508
100.089758547635
100.135831222557
100.141255982606
100.070530188469
100.120496898074
100.212667194534
100.180881111675
100.129271171476
100.050901149059
100.040553050357
100.092961940816
100.099805837663
100.065298420334
100.094633326214
100.115547088448
100.140191409539
100.11631541144
100.061743169802
100.095469674559
100.179792828355
100.1961540841
100.18173517318
100.199912946799
100.226241372829
100.285240991197
100.230469484366
100.165067067737
100.127735939803
100.137996429877
100.209329194153
100.23815303346
100.250410136392
100.251209236061
100.289673465944
100.250559745303
100.159008914031
100.227851569249
100.239710566362
100.202409407353
100.27885658902
100.377302479609
100.378145173229
100.299523342925
100.309146394689
100.276521296018
100.259716564147
100.279720670563
100.275971065718
100.243951921686
100.284053213477
100.261030933032
100.20041443453
100.228008107749
100.272313931871
100.273601415838
100.219259779227
100.199745800101
100.15365911864
100.217044378883
100.277630140493
100.232192017358
100.205264646354
100.215366068092
100.121611559032
99.997483143064
99.9691890354148
100.072226707122
100.125239131666
100.06340216524
100.011612258011
100.091090278966
100.121511350147
100.026667891537
99.9603980606162
99.9070259492815
99.8409744796962
99.8882018066458
99.9081073538187
99.7659647089526
99.6558828386542
99.7318298663218
99.8256275724807
99.8567979914187
99.8088327070985
99.7225162256048
99.7447998449465
99.7501679218632
99.6580298846331
99.540468215806
99.4851475616643
99.4709503255243
99.4347426884704
99.4285379073458
99.453765298235
99.4119402883564
99.3493456403553
99.389773324203
99.3526001171516
99.376019067321
99.3998628953593
99.3595529160353
99.372389230412
99.355731831876
99.3177553838634
99.3017576937073
99.3255522924321
99.4273947217893
99.4880167131594
99.556011318208
99.7240956713603
99.8725893493679
99.9828191643223
100.055354525337
100.059623206194
100.092398777735
100.115852826429
100.104171971544
100.095603989099
100.035466010599
99.9525292932218
99.8766692249423
99.8460597770316
99.9070544679965
99.9018783337088
99.8363749615119
99.7144332838617
99.6364934895332
99.5857927841525
99.4876726680906
99.3966089200503
99.2321052124577
99.1014013818287
99.0249777433688
98.8822986224685
98.7605740102206
98.6738730381767
98.5759312810627
98.4321742882221
98.2461695765661
98.0321220836611
97.8752555263752
97.6561260123619
97.4550558600835
97.1887531910724
96.8942074894541
96.6268872784548
96.3707688308843
95.9768141601198
95.587910706514
95.2549190221329
94.8308299601876
94.3353480860098
93.8459813912238
93.4421412270093
93.0653333967835
92.6875903887333
92.2911629256492
91.9619537299236
91.6406107204372
91.3247601596527
91.0563293830525
90.800041538843
90.46640846145
90.2039854696766
89.9965708379943
89.7390194836191
89.4221256096314
89.1558602008664
88.9353695860307
88.6620544860598
88.3459693817122
88.1194401015967
88.0225512426777
88.0222213523842
88.0860744967616
88.2483009770119
88.5327525595917
88.9197666701851
89.3228949736604
89.7686067134728
90.2674520496642
90.7633473047098
91.1962107039082
91.4978886367585
91.7707542750718
92.0582218673677
92.3419140431962
92.4820692018002
92.52407111943
92.6322261922824
92.6881819993338
92.729513985651
92.8319593115831
93.0387809826616
93.2995433041313
93.5827437139725
93.9005794333925
94.197087470781
94.4552385180641
94.6326923404257
94.7119745497814
94.6671900679826
94.559546453282
94.4708926005893
94.3213783369558
94.0899213396699
93.8132767583202
93.5184074417662
93.1233497482939
92.6263021597573
92.236112074091
92.0730629240371
92.0236363326001
92.1737285257188
92.5990573061111
93.2054918673769
93.8765289702006
94.5738677962731
95.2709606222335
95.9330550873823
96.4835784238898
96.9048118739364
97.2475036441903
97.5291566589086
97.7652026342253
98.0105952364284
98.154810462508
98.2910850294688
98.4594505275773
98.5879422298894
98.6100711852804
98.6342042146754
98.711509812315
98.797871963123
98.8070146444517
98.7812557030067
98.8750036907689
98.9838489410878
99.0147132632009
99.0582514333773
99.088262584776
99.0849247619785
99.1445162781122
99.2437843277022
99.3066066511175
99.310320869769
99.3562959699612
99.3927156614088
99.4146380002631
99.4605041677107
99.4787649136704
99.4813058797015
99.4906137872655
99.4946732155215
99.4964889461732
99.5135999040408
99.5130675292673
99.5771873565782
99.633094284233
99.5921161265366
99.5736338345975
99.6189600078041
99.5935558688507
99.5852488180562
99.6223472357282
99.6170463831035
99.6205058981134
99.6395333051641
99.6484480994068
99.6965130180369
99.7618733004244
99.7938051778176
99.783787008222
99.7562563917814
99.7355415473271
99.7555665259896
99.7840679071737
99.8299013362816
99.8168342050765
99.7965927773923
99.861091556992
99.8739692305944
99.8697132571083
99.9147674410976
99.9436530448122
99.9162254472498
99.8926540413071
99.9530698735785
100.004117219098
99.9703595651502
99.9743857763736
100.015418729559
100.037723037396
100.03342762488
99.9905635167645
100.031253320037
100.05962521152
100.046740457113
100.05870015185
100.071709045335
100.088222495818
100.097461682803
100.039061392662
100.04986396257
100.057052566806
100.038034293761
100.066326782759
100.048134514907
100.014679645553
100.021085322448
100.029604835006
100.022383877377
100.020756174783
100.04231962023
100.057379531326
100.034674610463
99.9974898528571
100.001135019281
100.015069660109
100.023223755233
100.038221807448
100.08881617683
100.127645937619
100.126376213174
100.129868695525
100.122586997382
100.130057967891
100.148813739812
100.156573577012
100.124650002335
100.111143250742
100.10868027726
100.096854511842
100.103607937051
100.133049216014
100.120007412059
100.128986339278
100.17639217663
100.20029150756
100.266404984611
100.305667976526
100.297508895743
100.356673668091
100.390005282881
100.335698518063
100.337647781897
100.307200738354
100.333381802843
100.418844981705
100.451956932988
100.379769007161
100.31722451781
100.366043416174
100.447652408666
100.465001151397
100.451081512734
100.399991899358
100.407777141651
100.431170316314
100.493412461972
100.533385765738
100.471814249331
100.428046390413
100.400628674278
100.358036403246
100.402633677458
100.385981262408
100.322125007819
100.41001512393
100.577090245957
100.538252386153
100.45334046474
100.409027932471
100.379463967692
100.42367074907
100.467657123157
100.38266142108
100.39189963221
100.391109281662
100.422460821711
100.481823006615
100.443381456683
100.339450622176
100.34844389563
100.388061110681
100.365751119202
100.403667260417
100.473746814756
100.408069360774
100.358327989834
100.352393289258
100.380859125537
100.331407317222
100.338170118936
100.363305916403
100.467747134433
100.529307792423
100.512795391761
100.554458749992
100.555946345495
100.480050396937
100.470927438312
100.498687064041
100.555456388111
100.529986054351
100.534815927607
100.585452277023
100.568683093013
100.520129021041
100.542519825687
100.593175155182
100.675330360942
100.66075510971
100.581574894608
100.598476625534
100.615634867139
100.617052246875
100.586497752218
100.600568540756
100.571009608464
100.535451462617
100.622835355351
100.657946472794
100.630381275267
100.627929480252
100.603347589526
100.562717669429
100.597857999266
100.670653567505
100.612112225353
100.609989644478
100.740127836887
100.744497807688
100.718912653619
100.701238996094
100.701933061249
100.65041238825
100.570700679759
100.56039105293
100.652563661996
100.654012678613
100.560262782425
100.528545802062
100.57359187732
100.532065870624
100.474535731069
100.481037884251
100.49600701014
100.517406478083
100.512151064715
100.413341638141
100.382239066717
100.359140959286
100.345593840909
100.377865538936
100.357905989825
100.291411292381
100.215205510756
100.163836801931
100.211169308354
100.229040999877
100.152622479542
100.094545569885
100.099140704818
100.111949083206
100.132694670379
100.163724371975
100.105908267874
100.011451271286
99.9348334896847
99.8113773753651
99.9254698687049
100.442016586086
100.542042165434
100.475589353045
100.615428300952
100.554378088039
100.540115754179
100.486244011551
100.511252387247
100.51270955388
100.510372454558
100.476452599884
100.392720884854
100.506835999527
100.586184335068
100.60509369501
100.656578868354
100.655419344879
100.558729729816
100.375795962007
100.442357698529
100.611496246607
100.50383594679
100.485357216696
100.49497172333
100.332911809433
100.299327687124
100.202530716617
100.21136233461
100.269400266197
100.436427624163
100.529908597129
100.46162485449
100.392079054739
100.410899075866
100.448175455043
100.536461131116
100.55947008187
100.596317442005
100.620506705565
100.568620353056
100.456494635183
100.485704501831
100.512729344245
100.51569337598
100.495631096053
100.44838061244
100.534704008206
100.790928774845
100.764084579562
100.608633803812
100.6537510777
100.873753847999
101.006756651337
101.066359747376
101.03058990855
101.100712859951
101.260068210482
101.376829057914
101.25096673384
101.222787399487
101.200233138941
101.179625811638
101.176638085755
101.178438582411
101.221629643827
101.490866135393
101.545134537176
101.514960652847
101.385109709983
101.244526487285
101.32813236116
101.357685364994
101.30970992562
101.376207147157
101.407993356535
101.616640944835
101.583903681348
101.41896040085
101.485442118082
101.5878627622
101.473014957894
101.712951761862
101.924797609937
101.879921478533
101.732178845581
101.791628052498
101.687745066177
101.691564654075
101.766018214206
101.844846158388
101.802241290862
101.854292508392
101.820118229468
102.081287601157
102.149807185006
102.188219199004
102.248605705046
102.418294794251
102.467580828756
102.480432989061
102.2424108059
102.279112093713
102.32303414646
102.371349120303
102.053478609059
101.891398453064
101.834762571464
102.04869950903
102.218360787485
102.45995815037
102.566159456946
102.894908045975
102.902409307517
103.219255895765
102.978552441047
102.487453204562
101.969193268327
101.560520934456
101.56109133147
101.82365827693
101.844788168423
101.729459990574
101.481014048974
101.32511356049
101.395996201792
101.411232276641
101.204995799942
101.165011512884
101.09393336111
100.915229149927
100.727922547183
100.908338100135
101.05249509259
100.932721939471
100.865185759027
100.853038950192
100.740831933603
100.740181049441
100.715921843305
100.848390155461
100.843001170301
100.772171318651
100.726528903955
100.708454972036
100.84935853926
100.900881851621
100.769086807828
100.82044079626
100.867090204092
100.921612520184
100.840746796616
100.795714762917
100.797882749499
100.857214401577
100.872127085714
101.03088877402
101.063325023071
100.961079875033
100.893814397338
100.998943781839
101.022895352412
101.14592663202
101.120849227423
101.130716328559
101.185615737591
101.283904994087
101.26036465492
101.271631430707
101.305825198538
101.598582487323
101.624506434478
101.617420710739
101.695664369027
101.960229193199
102.323715564748
102.580631250171
102.41646139675
102.421152327634
102.533187468759
102.597329198693
102.123570670645
102.005092455876
102.13204326589
102.066689829754
101.650039045043
101.762311180683
101.86225684898
101.839943689113
101.663282650151
101.891251884258
101.876814450331
101.768554131919
101.612164843241
101.984969514083
102.04467341712
101.827659991378
101.693397580011
101.645201498079
101.334240046504
101.308478531856
101.300328463464
101.46061670591
101.401601692614
101.173820628847
101.137827247261
101.62891681477
101.574248413199
101.447204341081
101.397411588597
101.341726608003
101.094651008974
101.50884383279
101.581033837928
101.372239953765
101.27731301742
101.318110831142
101.064040834636
101.144484661616
101.168909348873
101.04470727617
100.669394836927
100.291159973548
100.124114830217
100.323950731384
100.206835329064
100.085706027258
99.9413963313962
99.9601650335539
99.8225424111501
99.8858316574604
99.9069534316246
100.053861949857
99.9946987144168
100.077377358809
100.153641400247
100.235196378992
100.288997808308
100.395207030002
100.249788065152
100.180910979368
100.183223621765
100.174898492144
100.119433568514
100.073137840548
100.1477220241
100.327720422258
100.245154326736
100.169940434328
100.159752105051
100.269251264945
100.222791734883
100.323802281609
100.306136702358
100.250750418154
100.152158659506
100.164625441096
100.054531200874
100.068519012939
100.081665777896
100.179655410123
100.242947287455
100.319381810986
100.263798751646
100.265814201291
100.310341970762
100.363129733927
100.348380533684
100.236475652922
100.001065702864
99.9191474037042
99.8886653868249
100.018789820605
100.024515683792
100.078135805003
100.038237858747
100.085010563221
100.021767926334
100.000450723975
99.8519656155061
99.8686963047491
99.6878988777335
99.4846571385976
99.3529787242375
99.2723615136167
99.3711690307867
99.356179132475
99.2268523756605
99.2420504381393
99.0816367116543
98.9806821214293
98.8345231716484
98.748819828871
98.8093436837747
98.6995878073728
98.7801613507146
98.7910649985293
98.8017312572894
98.8443623666454
98.8144689720382
98.7769312813163
98.700506227989
98.6612296429372
98.7031474148454
98.7224300895592
98.692069145426
98.6418450463107
98.5363662594443
98.5380738452502
98.4579116808765
98.3297930511788
98.2180031121117
98.1675738270606
98.2677382549928
98.2456791098164
98.1684999508715
97.9560775034674
97.9276641296507
97.8236674563237
97.8977167801277
97.6242597900944
97.4375241245781
97.2021338684372
97.1221663526386
97.1512655905765
97.0248680707473
96.9414465446905
96.709214033777
96.3298170878192
96.0044956701697
95.7020969630868
95.1760103268001
94.6847305909073
93.6344083431514
92.4918225547751
91.1400994233863
89.477645886485
87.250474125926
84.4911666288635
81.2420249730211
77.2181389661118
73.7039668663908
69.3955191742043
64.7594038087064
61.8589861256943
58.7622750990205
55.8867122207619
52.9652136595111
50.1789242672956
47.6484046199474
45.2091307788324
42.2529423517952
40.4183991732867
40.1530064143131
40.5497953991231
41.2952236444421
42.2117683128642
43.7643019837922
46.5723837809872
48.2472392471517
50.6553159968123
55.314244792399
57.6431458243301
61.2527004303583
64.7750781052208
65.9224498505831
67.1665816737338
68.469170525223
68.2232886209257
69.4326237445348
73.4364700363746
75.2957231327339
75.5377556933584
75.5051413755001
76.5665023118006
78.3554753292295
78.6494964164522
79.5699997006229
81.8026655549577
82.6553892002831
82.6038868137697
83.5651355664002
85.088409821682
85.7622220866736
85.1853108260558
83.5643873971615
85.0561951605277
88.3925374529713
88.2596255388972
87.4280381098893
88.7269762556484
89.8536648166781
89.9872106993648
89.6895252115344
89.037102853336
88.821161938579
90.3569748211681
91.4030936977101
91.289277628411
91.155441694615
91.1928499429488
91.2663957803314
91.4562987888632
91.9866074381637
91.7519231722889
90.9251961331088
90.8052690159542
91.3582099511255
91.4074302584449
91.5041915809928
91.9330267637047
92.4799357916762
92.8913614168329
93.2287286749044
93.6079352366046
93.9138591449937
94.1101400322751
94.1913635917563
94.2872438801454
94.3210311147456
94.2920045607209
94.1431974662833
93.7862354950243
92.8843798942057
91.5323387703244
89.8381990796659
88.5075919405566
88.3566738856484
90.2096279780855
91.5049732149686
92.0333591773067
92.7834738519211
93.8764151533306
94.4185875569666
94.5232198140553
94.15542950798
93.0767256722946
93.700675876766
95.0757254457995
95.2902119285277
95.4599759459462
95.5792481415576
95.62309598331
95.7247588088467
95.235660794633
94.8778644446031
94.6114134538216
95.0774199246521
95.6147185405634
95.75453468281
95.3487501279518
95.4649246353403
95.4740409023989
95.2459465678149
95.1113253856002
94.9820329841282
94.9474918795146
94.9613278917541
95.4563695190403
95.3251574877902
95.3848852069653
95.3253678798511
94.4895596353213
93.1174390169114
90.4213904419313
88.076146652816
88.8275721554508
90.4773754049371
92.3337810412249
93.9274404971501
95.3418747516784
96.2837910204637
96.5274486792233
96.1373939339686
96.0979343984195
96.3846884407164
96.4042567737671
96.2129634209502
95.7167389013806
95.1082703406408
94.3643049462
93.3412134984797
92.5649571212914
91.8783377668504
91.730732694525
91.1393829540597
90.2327416560244
89.2610580459158
88.6037785302278
87.7079782402718
86.2946466082382
84.6903374797805
84.024619133029
83.670266274355
82.9969333351844
82.9497970065569
83.5448559201215
84.8343899655332
85.9613568657418
86.9407296718535
87.5877385617777
88.0171877667784
88.7892285080761
90.459987218259
91.5870616005262
92.3193220868032
93.1508898852527
93.7310522752808
93.8736068910379
93.6428974918813
93.3661464877793
92.4443610312986
90.930876919821
89.0902476959006
85.7346298390032
80.8487526748721
75.5082385341074
72.2091935325821
71.9806557140715
74.6709678322315
78.3657336964109
80.9923726292484
82.8205434129836
84.3178375642084
85.1771047524294
85.9685488207196
86.6349031103036
86.7293385518938
86.7607506708339
87.1749056366973
87.718942274373
87.7682561145341
87.4762021764103
86.7813451258812
85.8709551990016
84.8979850176738
84.2784599501873
84.1889363065344
84.3902927903708
85.3200626261394
86.7918021469702
88.3727403083152
90.0815358298508
91.5327030071344
92.2903107629999
92.6587570435552
92.8623398108233
92.9671693554467
92.9102505343817
92.6954234180999
92.2860891403346
91.6871558079791
90.9129583681302
90.052053291507
89.3556192178832
89.4237956863535
90.1217501606398
91.0331650422114
91.763120090762
92.1002474897421
92.0095505053403
91.5908913976833
90.9071436159534
90.0576515410752
89.1626672188489
88.2719162334522
87.4486951959262
86.7332803070049
86.0631752336253
85.4078234469565
84.5982300445288
83.5320954956181
82.3908034964166
81.2812374650618
80.1029091176484
78.6301030387952
76.7288069702159
74.5108651565311
72.2106022441533
70.0667626385305
68.1693844469676
66.5166716622362
64.9823401844624
63.4793836557446
61.9061436180448
60.2480690015606
58.5555388737761
56.9133687508472
55.3228789588316
53.7741682201822
52.2426138777477
50.7175154427948
49.1673652493612
47.5811255617844
45.9995536581009
44.5513605586432
43.3616914042777
42.5413877540354
42.0829340496385
41.8277220784176
41.5187279125108
41.009891424454
40.2869801883283
39.4123815683272
38.4596038887353
37.526133719162
36.6827968326508
36.0562376679881
35.7045588263502
35.6954271000138
36.0791191209696
36.8500047665399
37.98316277734
39.4842850981447
41.2878841675644
43.316868368255
45.4183086291754
47.4538161771582
49.4226718160896
51.4663211454759
53.6120315200891
55.790530253374
57.9155079144784
59.9547103897533
61.8849890918175
63.7018668548958
65.412331601514
67.0554804156411
68.6376915627771
70.1592919786779
71.6168090938902
73.0396746223104
74.4287454275767
75.7753991817353
77.0634352630956
78.2532343230708
79.2591040083967
79.9546126665155
80.2220699084663
80.0394872980614
79.4727863152778
78.6780724195912
77.9141725023969
77.5177020555395
77.7915071796106
78.8783751161764
80.5258780070755
82.1884938482604
83.4415755411946
84.2590504519517
84.7275514323071
84.8284168869391
84.5872632305547
84.085948918034
83.3842870784077
82.5653266773643
81.6263912922913
80.4936506451395
79.1190551787999
77.5165154354483
75.7714219450956
74.0241810751171
72.3024502403213
70.6111764026206
68.9444496057783
67.237030787565
65.4138830801194
63.4112963801577
61.1616963956405
58.6761964014054
56.0670954183968
53.5812173359193
51.4438298756991
49.8842793833689
49.0766523052226
49.1080890924716
49.8356363483249
50.6171231400428
50.5153891102234
49.173619931009
47.0002527132376
44.6435188232785
42.4771532807339
40.6597686687458
39.2423142820333
38.2607347403881
37.7066456557522
37.5237083792917
37.5960192685389
37.8270089764031
38.1457544192425
38.5494782422593
39.0746327040251
39.9060447416418
41.1504616299095
42.7994580381994
44.7406561805871
46.8111253890892
48.8396569772857
50.7718083990451
52.6013161309003
54.3589009587775
56.0300312586973
57.6078212757726
59.0290886943633
60.2033692104568
61.0884186032556
61.6483164939298
61.8294707104474
61.7015044526118
61.3551133241465
60.9094797368654
60.4921111493544
60.2580724580885
60.3258274717164
60.7235528662084
61.3744421535852
62.1716086163248
62.992386581982
63.7726321183152
64.5004915633667
65.167296604126
65.5900674368721
65.095993940923
62.483897643266
57.1858780752315
50.5850842319014
45.5391423572975
44.2774569842717
46.866875059899
51.2211826506991
55.3132251130517
58.6323560595747
61.2989265517137
63.386410850638
65.0533597771849
66.4628269875481
67.684238943067
68.6990932855803
69.5054950995579
70.0971980002187
70.4612681845615
70.6471298554645
70.7507980534777
70.8402201004923
70.9112784491811
70.8973770163398
70.7518563624326
70.3849856258605
69.8105572493739
69.1667608033777
68.6064863409829
68.2213954729684
68.0428969132997
68.0445353715623
68.1513137849444
68.1734499443923
67.9428721325564
67.4251874247788
66.9365692838291
66.8700804408505
67.2607886717146
67.8643099089749
68.4975451876794
69.1632115860701
70.0262696043355
71.0694571766855
72.1710333663343
73.2099488095986
74.1235030696418
74.9041385044277
75.5560337038396
76.0722588750743
76.522902368272
76.9768989676004
77.4032660579218
77.7829451841537
78.1995531597778
78.6906999241647
79.1680334050764
79.583457274043
79.9463147562696
80.1674615109516
80.2398447925383
80.164187954291
79.8655417231409
79.2550090192401
78.3357500002285
77.2747538126433
76.3576801507207
75.7184358342847
75.4269608532219
75.3610438710027
75.3519297953535
75.3759419509695
75.4589276722236
75.4567937036067
75.2518873130507
74.7685852295497
73.7975336535476
72.0959547993912
69.6014294305661
66.5879149990582
63.5894732728327
61.3498453171267
60.6893290878466
61.8668658921906
64.2873331428983
66.9648325313368
69.3221966015716
71.1994676278952
72.5845538333564
73.4688640431527
73.9601137875844
74.1749192108185
74.2841797691574
74.3449899806646
74.3623978100608
74.3421487639598
74.2970478695171
74.2948372200916
74.5003215062108
74.8731085214193
75.2636449134318
75.7096342596107
76.2397034600706
76.7611989993767
77.2123007032526
77.5677905546308
77.9254968647852
78.1894110616252
78.3404721441155
78.4646435873435
78.6275003944745
78.7329799105846
78.7242082173064
78.7252980732837
78.7863917044779
78.829379638326
78.8533427234223
78.8189169962625
78.8567901877346
79.1351662239489
79.5983216902792
79.8183472339239
78.7947733055706
76.4743178475336
74.7710473710801
75.0294745434499
76.7207966102019
78.750541373591
80.6153581990734
82.2494906747905
83.5297321595767
84.4033673159068
85.0708478869384
85.6211268940455
86.0833670120369
86.5726253459863
87.0978682504383
87.8422103951457
88.7504913028251
89.5189947938906
90.0760999653561
90.5917616349481
91.0674741622928
91.5448537173094
92.1035621994377
92.433883607374
92.4437594709698
92.3225277158134
92.0562377378861
91.5235495838165
90.4333658759127
88.4077742551387
85.0149843846542
79.547134035478
72.1798612860986
64.3721369658169
57.3034674456685
51.1028442922714
45.3696539551513
39.8567167150806
35.3465337396921
32.7085471780262
32.659019633777
34.7927264257906
38.4625837450803
42.9131843254358
47.3732468156073
50.909244195737
53.2327855624894
54.8051738587884
56.2227499533753
57.5455387970685
59.0511431837055
60.7558735255838
62.6623092384568
64.5023851586527
66.2059159625596
67.7308052107644
68.9810927515969
69.9324050733
70.8234530485399
71.5960525554081
71.8008536370475
71.9850381414551
72.2968106153148
72.3776618268525
72.7542298731463
73.505980981958
74.4939694921794
75.2322357488721
75.4484740345114
75.7322442262977
77.5663193280821
77.8195166043022
77.2212814619035
77.2724746687338
77.5336855826137
78.0675458566411
78.3185373266488
78.1984763144639
78.4189425370421
79.3190274796733
