1798
3999.43349933624
650.420452594757
1
128
4
102.646922676026
102.758575431237
102.780354827065
102.642758127023
102.557831544958
102.609928976191
102.665510679344
102.621744632078
102.565916098091
102.599229930959
102.611215497049
102.645022315793
102.583455631485
102.499057763998
102.45186799802
102.470299488962
102.554280593139
102.572723577637
102.59684502351
102.644992252916
102.67513722126
102.633117449054
102.624884414465
102.632569946416
102.538064955916
102.441689001973
102.448000970909
102.44909607136
102.45765636233
102.342845677103
102.400335494726
102.51255011198
102.503679234254
102.505617264056
102.2632179821
102.150683858466
102.331999541555
102.490013921205
102.548494265882
102.337708360297
102.429818620881
102.245367542303
102.193177495696
102.293359006077
102.443963066617
102.435932384271
102.57026261101
102.750988043003
102.58501785748
102.201020643677
101.95812983967
102.133386803971
102.031833055536
102.221688672006
102.532576345439
102.42416647989
102.317109441945
102.212460665977
102.303907833702
102.173882614774
102.067848277736
102.414046584997
102.068475249551
102.094961336333
102.412754768246
102.340754373552
101.867114700708
102.141851735925
101.958776050927
102.10380133147
102.201297743768
101.800632015485
102.098094156792
102.16099394495
102.446634664497
102.100097801913
101.893525994814
101.532961793632
102.08926240957
102.345317656546
102.51809924847
102.413700673358
102.14487013795
101.903595528723
101.743573868945
101.640153928133
101.921522608084
101.950632472222
102.10831870167
102.172546495805
102.397808085992
102.280106519526
102.33971327069
102.226425546963
101.79322851257
101.766612594193
102.207223709352
101.853954396901
102.365825513465
102.462134768913
102.34300930612
102.399602328374
102.056945991985
102.206010984268
102.187073183368
101.854092272035
102.356679867881
102.087822706926
102.063507864296
102.513921853929
102.512098191293
102.470710536426
102.470744243484
102.494287472151
102.356732313712
102.372927303782
102.275687176051
102.101713328487
102.415558456412
102.387206061282
102.461125747729
102.477035931976
102.290655536012
102.314751666717
102.099632895206
102.144830123217
102.316509842296
101.99033098516
102.185266242552
102.062873931964
102.072118823841
101.694783223094
101.910318429659
101.758218706548
101.850852863793
101.394676423113
101.606493000556
102.290742389955
101.814769453172
102.117974029812
101.665870112152
101.681924103111
101.770898833545
102.160800297812
102.24993052305
101.88494561173
101.947822524121
101.851217127368
101.933600929063
102.215847169618
102.159376485626
102.274959789558
101.966424148936
101.894710970266
102.12417646496
102.32433263601
102.422427795972
102.487695058326
102.242000168091
102.163428860828
102.393435819997
102.370327732604
102.364599823141
102.295476933888
101.971353248841
101.964784060014
101.949395686985
102.297540096412
102.061818830671
102.318448918778
102.164877413482
102.006276057528
101.62421144641
101.322724737124
101.880377913748
101.405568107555
101.504272675655
101.917712962923
101.964873846144
102.042227329554
102.009701233768
101.928462262991
101.928903202536
101.685907599368
101.924446231115
101.341668541564
100.6892630751
100.59777255838
100.675365098136
101.368469281075
101.465082550326
101.590386296579
101.586719327711
101.423052084086
101.430392893132
101.225789878815
101.284715846126
100.629047372954
100.707337974927
101.461269067658
101.330608075743
101.309094985884
101.083495697629
101.023992314453
101.218531642752
101.118604682326
100.582080684108
100.875291327414
100.873975836848
100.966437781247
101.318552299444
101.408920890517
101.278348230158
101.252353473199
101.206410694
101.088050181121
101.102027693839
101.233316302505
101.200371306298
100.818668142225
100.635725144122
101.118855500352
101.357906162443
101.436139478218
101.240093466748
101.107557216454
101.044797865289
101.139642440869
101.019345895756
100.814437392645
100.374057592501
100.09049165595
100.318788401424
100.567595499943
100.748473968691
100.811217879335
100.634338360666
100.645226223196
100.600463386095
100.437877919248
100.475426290242
100.449635894398
100.436334329501
100.479261431696
100.584264051621
100.665165532997
100.629271222989
100.509656340205
100.653992522993
100.714308013192
100.434038998828
100.151900819173
100.170895923206
100.353445295907
100.325742980069
100.436820679128
100.443702101882
100.476106198173
100.544985219305
100.44311138963
100.487265679539
100.502880056043
100.277059383834
100.304183704829
100.453830426895
100.478534102657
100.337895140047
100.384712525961
100.387313785409
100.326691182572
100.299835871963
100.333993404674
100.438678803324
100.288139338168
100.121789946252
100.242117080444
100.265887504647
100.230951514797
100.180613683666
100.141321076964
100.11972730345
100.07246396149
99.9326344557306
99.9220769857907
99.9926253188368
100.082641592222
100.141526009592
100.073111859706
100.050166014184
100.131456208175
100.010472869473
99.7968066361123
99.712020316141
99.6215960305461
99.7737808059755
99.748845523232
99.5113687654891
99.3800552409563
99.3436075066052
99.1799417345956
98.9582054954293
98.9594795424147
99.1379672810511
99.2808125883821
99.3956370030626
99.4496599437561
99.414306306726
99.2720508026759
99.0666243162961
98.8790757240362
98.9803307178694
99.2610119238977
99.2659926858468
99.2405023587558
99.2099442652234
99.2270446449153
99.2223493402841
99.2283729886552
99.1388696567079
99.0461939541293
99.1440809553821
99.458847664918
99.466590114576
99.364362160996
99.3078547361731
99.4107549900133
99.6317258431181
99.6967371056943
99.5274848190613
99.436805180851
99.3973952139778
99.3398247978224
99.2538975453377
99.3259904645256
99.3323381577667
99.2302866863738
99.1430468268518
99.1202149746469
99.250877491567
99.4200769767168
99.4059440447584
99.3484308595433
99.281318571511
99.3302461000462
99.3603577301541
99.3021228470522
99.3548919564547
99.3417866133982
99.2529903190911
99.2887088157866
99.2336887710913
99.1766094650392
99.2261641350379
99.2571535843646
99.1473112376275
99.165777601662
99.1705686173331
99.1910687059406
99.1677733136946
99.1545575426789
99.1969624789738
99.2279011102047
99.2044134565019
99.2011512885436
99.1309170314766
99.0392224564818
99.0279412873103
99.0185611572926
98.992071462172
99.0370623720167
99.0151693415013
99.0290782362865
99.1657162265274
99.2681852006437
99.1893381103217
99.1274392614043
99.0309270910747
98.968712663273
98.9867003110896
99.0639545647925
99.121413070067
99.1008736049332
99.011856525578
99.0269008257239
99.0415519119559
99.0305972883938
99.0157709641649
99.0803077259571
99.1180633678209
99.1582908380399
99.2505381752767
99.2586181676051
99.1558370847817
99.0659787438471
99.1519566213213
99.2429568160508
99.1991469619027
99.162411232924
99.0168168119907
99.0887163056097
99.1837648810882
99.1517921783925
99.1456681593522
99.1505532826539
99.213006041218
99.2178684916616
99.2203761761655
99.3382860261727
99.3079745916893
99.2589681169085
99.2794836465798
99.2982020445785
99.2992153315249
99.2967914092017
99.2560669971422
99.3088374304299
99.3503380506501
99.3714303291755
99.2815082986023
99.2460643837621
99.3243910956265
99.4348307969114
99.4790390928205
99.4332225585734
99.4312277731531
99.4647462819031
99.5200675844288
99.4911691704751
99.4709840608224
99.5050151723146
99.4920856327431
99.4695243072581
99.5587060859467
99.5630549116918
99.51430318848
99.5748665993132
99.5923873961276
99.6147344618908
99.6971887338063
99.661186088595
99.548358388833
99.6071888352458
99.721612933921
99.761848981467
99.6793296201878
99.6815152635603
99.7091990607346
99.7302247362728
99.7734622680613
99.7865007598636
99.771939416811
99.690294531892
99.6597159915444
99.7277184159058
99.8025890580032
99.8421442004174
99.8667345810002
99.8649057525247
99.8408758281393
99.8308385838727
99.8349301337122
99.8830974341259
99.8835432046926
99.8184745823366
99.7990084958499
99.7903919053112
99.7489064677186
99.7755241637092
99.8169887451786
99.7831910832171
99.8004823798099
99.8969402272192
99.8720882174406
99.7995224142999
99.8236006647765
99.8864957903456
99.8376025119741
99.7017505715794
99.7111999390019
99.8081557992791
99.7567333541129
99.6554045849267
99.641287827281
99.6262556884943
99.6293271689139
99.672975670272
99.6767718781163
99.6536528407334
99.5997083434124
99.591573633961
99.5324826249122
99.4716170117517
99.4530335725664
99.46926329987
99.4537454993694
99.414119970651
99.4426925672847
99.4804715145627
99.4346247973567
99.3827905922162
99.4002854424782
99.3910541633222
99.3801905137468
99.3679205922444
99.3517606763381
99.4564005944987
99.4290197951707
99.3642127399036
99.4778965679033
99.5426776109025
99.5186600495862
99.7023695504724
99.8468320647751
99.8958877439545
99.9291099282763
99.9218953718202
99.9440166294531
100.03728853424
100.062779954571
100.076704281039
100.053030809313
100.01179806959
99.9310864610736
99.8466865186238
99.8487579188215
99.8617955689279
99.8878796336539
99.803608026118
99.6381098246824
99.6054313611762
99.6131679810277
99.5376639533985
99.4083845296155
99.3655210802863
99.2894804451364
99.1549487447832
99.097693627419
99.0329259217446
98.9447580149422
98.8532905187697
98.7495347019921
98.5610926061902
98.3409025420937
98.1468690016475
98.0760782938957
97.916065296382
97.6959288666629
97.5138772650576
97.2440847700782
96.9351240378232
96.6714714452399
96.4156433653338
96.1236667510356
95.8037800813084
95.4718334071264
95.1381644302598
94.7808567818115
94.4552720631704
94.1331848241979
93.9025258679665
93.6838331792877
93.4383615991958
93.2226447897994
93.0379052268192
92.8202276666864
92.5913030447855
92.3949203271955
92.1936016652265
91.9552514279931
91.7533098711386
91.5431816231093
91.2576232708736
90.9581097533371
90.7003212195464
90.5310754418891
90.4117856479773
90.3408771898687
90.3820001060564
90.5230608111216
90.6949156941255
90.9285944943978
91.3130324302792
91.80474442572
92.2470890050223
92.6012502447241
92.8728928652917
93.1467519562789
93.419143657992
93.6938119213152
93.8795274772942
93.9619660324875
94.0550218769438
94.1396248112537
94.1910417471979
94.2761479244842
94.5142282504131
94.7248973740161
94.913098720641
95.1082867607091
95.3495733477295
95.5834138167938
95.7072999510013
95.8146187744953
95.855046764757
95.783266097486
95.6820176799994
95.5277314464536
95.3338147230068
95.143945853316
94.9232671549515
94.6237947398053
94.2554310403468
93.8126590911184
93.5243350426506
93.3792918083323
93.4044272937365
93.7036619776372
94.13629343619
94.6995809046827
95.3564608113956
95.9988294334666
96.5940018671791
97.1190967993681
97.505293691489
97.7625225171446
97.9922257019373
98.2449477496223
98.4952803565496
98.6452786911651
98.7904255419153
98.9355314307217
99.0021354685153
99.0047957486396
99.0346277010525
99.0936366731597
99.1972839167342
99.2302985929051
99.2323661816297
99.3008919569337
99.3673231260945
99.3966889257897
99.4794670844689
99.533996783193
99.4868623378804
99.4843162730161
99.5849007467463
99.6558325623343
99.656360886438
99.7174533085242
99.7467816142789
99.7465317412529
99.7950226511907
99.8364661533166
99.8933569144338
99.8676404821961
99.8474162512038
99.8502870471984
99.8965648734152
99.9184411991999
99.9315435835378
99.9821189643685
99.9528858873968
99.9214089065499
99.9505994387848
99.9657590954546
99.9671745549527
100.003751945535
100.01580188662
99.9948266695876
100.007633818866
100.040648862976
100.069468546897
100.094577679945
100.146250701558
100.124425980067
100.0682424211
100.062569449196
100.081474935866
100.123381299597
100.173423416271
100.159983051121
100.171931780354
100.244810883496
100.257659596669
100.257173105879
100.277342771903
100.288339525344
100.260294845591
100.233130277924
100.298145409297
100.336491032702
100.290635101517
100.304184142071
100.34886645765
100.338556696526
100.326101608798
100.328751034331
100.396933801715
100.391958856335
100.348349760479
100.348232991689
100.372567137983
100.391885145635
100.428246133943
100.378681017458
100.350076430089
100.377243451186
100.420772435122
100.422465614808
100.378662938209
100.328887653372
100.333859999274
100.338731707721
100.346611462774
100.350717035526
100.371771589401
100.381598898856
100.367508562485
100.345077386853
100.336307198673
100.335441002968
100.326404956984
100.31454511546
100.373453629262
100.42432654633
100.419942518644
100.436796982441
100.460058863194
100.437539194024
100.421733269518
100.453749641004
100.445192198506
100.408526514022
100.405068760201
100.412566607005
100.439040361192
100.439725600766
100.447594528817
100.503750059268
100.546407658103
100.543389108928
100.549597929623
100.520093004271
100.540036702732
100.634989782023
100.650384341546
100.638427140284
100.682002993227
100.616793673611
100.638800400786
100.742108243933
100.78604255716
100.687017643614
100.65240997133
100.700611892079
100.761946829029
100.79680388068
100.808759938656
100.776510839014
100.787294308628
100.793880514635
100.782543150159
100.810081312732
100.840070571683
100.830558830893
100.810693799787
100.756046880905
100.792393943595
100.787242248857
100.726747201013
100.726803894227
100.855933295183
100.914711002151
100.919503909464
100.901518729008
100.87878980974
100.853745397522
100.874238463854
100.792171917621
100.809701031428
100.821297911161
100.836545695084
100.9459444316
100.937369024862
100.83543904763
100.872773034138
100.870877132014
100.761754442997
100.784700590162
100.819742016019
100.755604883593
100.725473814784
100.757084234668
100.858208009237
100.876974768866
100.87938347488
100.871901300886
100.907301331098
100.904934305937
100.864865208703
100.837509455845
100.871695782629
100.838671725374
100.84688203641
100.922014488817
101.001332038031
101.018093821962
100.962305574059
100.938144457807
100.927806607661
100.965722579135
100.949133330238
100.941533037218
101.011580875154
101.00534817845
100.976640991317
100.998394763338
100.979373776127
101.001782055149
101.038741650917
101.010125790816
100.942966720785
100.89104067219
100.979671387337
101.069361416387
101.043203393925
100.991280385745
100.951067566201
100.929161262669
100.959656189313
101.019525448074
100.960775456846
100.939116840225
101.096079331992
101.152524202237
101.122526087384
101.050253844356
100.982677785501
100.979057257109
100.988102401461
100.985642246732
101.01510214395
101.008326720753
100.96795164039
100.868476887418
100.855404522963
100.860394133978
100.889800256535
100.935771046492
100.923860454996
100.917530701843
100.924590268378
100.874959558426
100.832113873905
100.755157188743
100.728507016361
100.780327115754
100.74691078611
100.663217805136
100.681553112257
100.680298468246
100.642477145787
100.623077048158
100.617557436436
100.618465759597
100.57707225433
100.566033980859
100.59292336896
100.57012748076
100.521377184787
100.41739346304
100.278527195775
100.128556754719
100.316957221535
100.946653283471
101.050318614728
100.88175235786
101.024103133102
101.049670718899
101.10362587339
100.97326532734
100.996629643073
101.138967650647
101.154255976505
100.960473753177
100.784616441219
100.868783789838
100.94560669488
100.997625648997
101.10493759896
101.153513773671
101.064849005477
100.845223698533
100.905720271619
101.097852397655
100.915874137795
100.821799809116
100.808457006426
100.607486629275
100.569881050477
100.592271869153
100.638981190055
100.628258881841
100.739928042346
100.765327160057
100.707111986078
100.682235961812
100.755081935955
100.821405638317
100.885572103507
100.882774488306
100.889371343509
100.870787639434
100.843670501849
100.777287697442
100.855008654752
100.848152888472
100.784893666657
100.795806100638
100.859252974794
100.915980404347
101.061530348031
101.058019314311
100.985590714921
101.077694896598
101.321646833223
101.471294393501
101.488952660042
101.382460717225
101.338656908583
101.41406792798
101.702098312673
101.784229096755
101.649674931046
101.409480707771
101.341243165034
101.444563109571
101.665882445747
101.688238194686
101.776939223498
101.859819420745
101.909406088661
101.684192130949
101.518935709577
101.519451847446
101.514224917416
101.664713629374
101.881360712797
101.862814071361
102.057940434287
102.077644761969
101.906637279399
101.851785923997
101.915409026693
101.798694662201
102.040926650599
102.164469113631
102.148493847173
102.181545265221
102.404936707725
102.228910402579
101.905310274134
102.127161576245
102.411131923095
102.079903369194
102.04157999582
102.307708182378
102.579091520138
102.392029183701
102.36943377233
102.474054254064
102.695871999768
102.48192233854
102.300275390175
102.342312587243
102.451051805234
102.338509991885
102.599760300395
102.634059027094
102.600912623191
102.590780817116
102.855793002163
102.955177429487
102.813250170488
102.512619724271
102.787184351286
103.193781680595
103.883828887526
103.580672200374
103.040149185503
102.604573880067
102.429397125872
102.394740663451
102.357272621685
102.174433239087
102.046594861838
101.819174548492
101.676196054602
101.680388605408
101.771062331037
101.699219156326
101.583419467985
101.453495295333
101.389606410983
101.243807707723
101.29905012027
101.341086714224
101.335320069874
101.333133721314
101.290084900011
101.080903243277
100.991808113279
101.004953062705
101.187138222677
101.183333667973
101.135079537515
101.012631592256
101.004631773456
101.13930405125
101.250820413961
101.288553545844
101.343176616614
101.249689734821
101.22602390981
101.163573597248
101.176527538484
101.150491390207
101.243582991072
101.321233845604
101.343938142161
101.244994835581
101.14332323027
101.060031112527
101.187954658787
101.248320602707
101.442160091162
101.53538274499
101.372812484067
101.117443446683
101.266506951685
101.575724830589
101.750378176336
101.656785580754
101.704875120906
101.629541678147
101.906532015475
102.03039784558
101.950558865792
102.215086058076
102.698498940075
102.759995645751
102.765661122091
102.643293340887
102.542421682945
102.13275603275
102.363853344774
102.69451434633
102.666916026697
102.349405933883
102.299312890997
102.037845610385
101.784076879998
101.856403717059
102.215229668934
102.192513240079
102.25779558727
101.870263498438
101.919288873348
102.025794259814
102.146323556207
102.063791564085
101.904816476807
101.676342985286
101.804977494734
101.828500578538
101.92752041997
101.771631895396
101.527151351857
101.425820257803
101.780223518223
101.689956249165
101.668994148042
101.539140856604
101.584542964324
101.636782881165
102.163762342066
102.212508670471
102.045759818404
101.724877560886
101.672574923959
101.643517603619
101.637276481927
101.333820906364
101.191162652243
101.019759405666
100.81295720792
100.586573838966
100.712617926168
100.662719121682
100.6323685185
100.541041538104
100.585268540073
100.291125980971
100.239253754677
100.35807356468
100.584378552254
100.530245334352
100.499520874933
100.394253307965
100.403108863897
100.497165273944
100.685341417898
100.540107017209
100.52808013232
100.54889254824
100.442142578305
100.402378296057
100.39007625605
100.460731328188
100.625487845323
100.49024659681
100.392737061271
100.367130083284
100.49021834242
100.51687378624
100.551772307757
100.456529858028
100.454306647027
100.319325423936
100.336446629238
100.241430167593
100.260535136384
100.340282133148
100.50488911561
100.502000168215
100.49081244076
100.459654473306
100.47926044957
100.473386412801
100.527023530532
100.534248941111
100.421293436527
100.194130041734
100.143245211047
100.133618487094
100.293937453438
100.268903968261
100.29425124464
100.243024054967
100.282529465041
100.237527863493
100.266287570826
100.145582543024
100.157267725771
99.8869312190021
99.6615621192816
99.6624948548229
99.6837888119808
99.7650926715587
99.687209569218
99.5412476147725
99.6326069295652
99.5053551307038
99.3466704891881
99.1739510711699
99.1009159320487
99.2170333694213
99.1527613509552
99.2522755833731
99.279993277426
99.2990386723203
99.3208011253168
99.2722428011181
99.219838618985
99.1532361868573
99.1239961090445
99.1565411517539
99.1505802590542
99.0686370705415
99.0247302767391
98.9895562199634
99.0126141096441
98.884755030989
98.6813523484125
98.6366730681461
98.7267084729904
98.8066992525091
98.7316802084667
98.7074205694792
98.5012894542604
98.483742421286
98.3824136528888
98.4516311664366
98.1458170092958
97.9509001844214
97.7732722024669
97.736227110348
97.827287678144
97.7868713067459
97.6750706954669
97.4589113005696
97.191202040342
96.9095838245656
96.6602511965156
96.1829785333463
95.7590559901194
94.8754259321129
94.0122249520754
93.0069286593545
91.7348079910991
90.0640799686014
88.045698210576
85.7551847849327
82.657020790378
80.0657153751302
77.1784599060141
73.6632177962065
71.3483099583584
68.8987586732605
66.6929820650479
64.410445683009
62.1783037631155
60.0447514573501
58.2575985197029
56.1691238941003
54.7756767178164
54.2135053346243
54.0904730051724
54.2709436656219
54.6630679151938
55.7341486773066
57.7670057586336
58.8992094332259
60.7997265289202
64.3205542006711
66.2406500148277
69.0358703652472
71.8431128482225
72.6790127341006
73.5754690464736
74.4799673529145
74.2260229852239
75.3206913008589
78.4915977631658
79.822481688783
79.7386578963574
79.6388437730824
80.4775231375417
81.8125663416263
81.8922378175015
82.6239884674805
84.358346762165
84.8470185460106
84.7131792048634
85.4867911367904
86.6302109749332
86.979961867471
86.2372416629358
84.9325704245708
86.5354494993689
88.9644970404617
88.4875508139765
87.8584186216723
89.1322101727951
89.9677600303574
89.991588070248
89.6589621151378
89.0376427752446
89.0828073476385
90.5201875532956
91.2356768552587
91.0023565431234
90.9145662129521
90.9718482457037
91.0990674400494
91.3467689254055
91.766433059245
91.4772265373555
90.9505295479509
91.0724192841172
91.5354273621337
91.4949794251896
91.5624248519102
91.9007676874791
92.3414768230064
92.6763181413202
92.9369712016218
93.2674685403119
93.490601699637
93.5888007090749
93.6739901677826
93.8012983841724
93.8255477170334
93.8031688069282
93.7193149505163
93.5067507875219
92.8406416014232
91.8673173070338
90.4875722596569
89.3769328730954
89.3458245020714
90.8765809526814
91.7375708078556
92.0733853509478
92.7350528836055
93.6613353994082
94.0719056611778
94.0449300168973
93.5148027998521
92.6569588133477
93.5336326936768
94.6573821402531
94.6898849417606
94.7586651513428
94.8573632957123
94.9022242902681
94.9213587816352
94.3627913829258
93.9684959086751
93.8053696934207
94.5983222222988
95.027001533003
95.0149789420844
94.7371469590856
95.0305936517475
94.9536925385745
94.6412646775069
94.5643433614531
94.4295457787675
94.3868216749294
94.5077223956431
95.0245264002086
94.9242326536238
95.0727929236616
95.0211542228996
94.2482805548634
93.0648712986389
91.0824986044538
89.7759391957458
90.4478969497708
91.5773014119306
92.9315805892754
94.1960604168832
95.4442261055148
96.2562124139687
96.3531590373698
95.8873648227747
95.9583322220131
96.3711984838826
96.4317278617807
96.2769896890857
95.8819930156416
95.3728497920598
94.6970790259147
93.7596543585216
93.1903284739736
92.7333295354414
92.6461033600737
92.0257643113949
91.2107142091147
90.4919746886198
90.0372640904125
89.2119982477435
87.9797600860533
86.8582080784411
86.4905483877778
86.2534022159222
85.6780058411938
85.6416976832441
86.1041293407034
87.180501027091
88.074284979529
88.8504183201501
89.2668720567832
89.5248881634784
90.1485688060693
91.5740196347837
92.4063427317197
92.9344054033472
93.6333436355959
94.0794830257223
94.1599599499128
93.945860567905
93.7425592641146
93.0322891926737
91.9510025202822
90.6792949965047
88.1489174966977
84.4025833224301
80.259017731015
77.657854447136
77.3577007614911
79.3592069504457
82.1913077427891
84.230536006628
85.6101952732842
86.7691660646819
87.4626583360387
88.148631578443
88.7117716824986
88.7334451059654
88.7159954678992
89.0797242879198
89.5939488475094
89.6230454984271
89.3903589523799
88.8496719864412
88.1267457625439
87.3197001456098
86.8791373667025
86.8867014105285
87.0060154733411
87.6845068864951
88.7749985481299
89.9242225731413
91.2725648181965
92.5054256650326
93.1275919039509
93.4327790317394
93.6074831274837
93.7161465523386
93.6929050390697
93.536845504343
93.2484316873574
92.8246231604424
92.2142300296897
91.4908409572185
90.9097385147428
91.0047985189779
91.5972609318936
92.3399216482848
92.9017641609631
93.1532089580178
93.0845174586771
92.7720502744039
92.2675300361353
91.6153541635836
90.8997032915365
90.1927390410552
89.5535909962833
89.0131816159676
88.5144475425243
88.0247317287493
87.4166443621147
86.6103962083915
85.7374897765558
84.8995463658554
84.0219658473964
82.9087889149097
81.4523492560024
79.7480715764265
77.9691817946771
76.3049227254945
74.8348923041574
73.5604138598691
72.3723628853004
71.1843986147163
69.9298283571197
68.6458369945986
67.335532084902
66.0548860571694
64.815179638777
63.6015298542121
62.3932896192046
61.1801086861003
59.9513043448476
58.7078594887636
57.4434695051436
56.2442246070392
55.2312962581906
54.5128186486935
54.083674418797
53.8260412756796
53.5630015023213
53.1675200770238
52.5875792974497
51.8656335553513
51.0716448210826
50.2818890312288
49.5378152419025
48.9194400021262
48.4888753037799
48.3051101811183
48.4231596802218
48.8773162663164
49.6456670272959
50.7483866267043
52.1509269221098
53.7816160499037
55.4929745417273
57.1521068683806
58.7391933516457
60.3819450546559
62.1216573911329
63.8926382240107
65.6160917262839
67.2639108726426
68.8151535596937
70.2871940920803
71.6726177909898
72.9891956075386
74.2371951250252
75.4495785008081
76.6273621950012
77.768643902411
78.8782570353842
79.9489428542009
80.9752790722165
81.9361195457904
82.7511971271793
83.3399221432692
83.5938260308212
83.4758399592856
83.037016456664
82.4140013055879
81.8008219823617
81.4702024939163
81.6576383946232
82.4701942344297
83.7408589152024
85.0475325623488
86.0561514717326
86.7276800460581
87.1046327937835
87.223397509675
87.0911391678286
86.7362062472676
86.2045737968062
85.5746156874424
84.8595474287766
84.0041614363053
82.94879197665
81.7083961641772
80.3553382043691
78.9984144822353
77.6652997421961
76.3606578984115
75.0813979960277
73.7548360703204
72.3316763312739
70.7693634009997
68.998106775006
67.0301980784687
64.9515763871073
62.9340643659993
61.1550405698178
59.8168875178791
59.0741576411386
59.0500728941635
59.6280745510104
60.2918538167796
60.3098578560855
59.3514730600794
57.6744505206502
55.7831895983222
53.9849635955627
52.4210816124502
51.1557405193387
50.2218153896853
49.6131484812421
49.3062216376549
49.223104260007
49.3030566713469
49.4779658263071
49.701844951599
50.0142261811585
50.5873844196881
51.5065996881673
52.7896206360395
54.3278211359173
56.0023599438085
57.6889268361622
59.3121016933234
60.8319915670809
62.2773939703705
63.6592356894736
64.9570417177191
66.14028765373
67.1452787845833
67.9043119682653
68.3887750482157
68.5703867263106
68.4883188008761
68.2272945743139
67.8857012699464
67.5092215787862
67.260196602541
67.2836257727978
67.5816730919126
68.0722956396462
68.690321669177
69.383515902555
70.0459937768039
70.65658967535
71.2834111669616
71.7687477159863
71.5528328937626
69.6854737251828
65.6045629450033
60.2429099820135
55.8318328070467
54.3263636592934
56.0552538318421
59.4314342099031
62.7094888051148
65.417590640349
67.6129987158689
69.3624190938503
70.7942618546989
71.9934175199372
73.02359644351
73.8629480083062
74.5247491217321
75.0211679689758
75.3519926570463
75.5284819540003
75.638813716319
75.7383685227652
75.7999292593839
75.7753343626566
75.6634966796939
75.4137876158649
74.9929398018412
74.5012589127252
74.0685158535781
73.7456754474829
73.5853331207842
73.5849090356015
73.6752498505733
73.6989593510576
73.5146245950777
73.0971148008798
72.6817813982154
72.5908829115465
72.8875403269554
73.3412859649258
73.807763560313
74.3392823102996
75.0308355566803
75.8692916082019
76.7540033065499
77.5978108596094
78.3350862948612
78.9275327439714
79.4544764724175
79.9101578511734
80.2670191023093
80.6065659006141
80.9661426084533
81.2923610200626
81.6140512701599
81.9939838665511
82.4037930159141
82.7661059988147
83.0809887072487
83.3140725169112
83.4111273376224
83.3563981201672
83.118730175738
82.6300515128786
81.9102151141839
81.0891957787338
80.344494010709
79.8210183540789
79.5500453834884
79.4512157812711
79.4653393751878
79.5290941185962
79.5880195525701
79.5979787297397
79.485678160691
79.1242826845035
78.3555055630857
77.0015066690809
74.9766914674576
72.5143351747956
70.0279359827437
68.088261786711
67.3903070400518
68.1869879386827
70.0632879879511
72.2125486593792
74.15905267919
75.7466141447577
76.8576183334908
77.5522488153189
78.0007683654118
78.2322910482664
78.2864868702205
78.3020711803653
78.3515603420026
78.3647050528422
78.352449429924
78.4015887277458
78.5217842487653
78.7019103744257
78.9869560899074
79.3880541318029
79.8200568781308
80.2275391065354
80.614028507032
80.89783329428
81.1095704755945
81.3197926484258
81.4596253208542
81.5934892298926
81.7751631797526
81.8411648529692
81.8599687907453
81.8937415466488
81.8969012125567
81.8810678790695
81.9141010569989
81.9180427222105
81.960434965531
82.1842783203858
82.5424944889195
82.6972648281615
81.9075375435067
80.0574017041284
78.6097736766559
78.7165969773362
80.0772857990897
81.6782475807941
83.1415270658541
84.4804877790927
85.5255924038311
86.293224449584
86.8597643469716
87.2615891405221
87.6475991625539
88.0899488705652
88.5795428275819
89.191867626554
89.9096524196209
90.5262911277949
90.9819163961165
91.4601307047046
91.8831713812619
92.2705450882063
92.6412989439799
92.8011300594254
92.7884843607281
92.8032730792199
92.6286564494022
92.1873674474036
91.3829791143558
89.7821521091536
87.0528250998399
82.7527378686276
77.0292235056581
70.7730437478998
64.8427404402599
59.496172107097
54.5140559062404
49.7101964973653
45.4410413233538
42.6200135033338
42.1432541784444
43.5518689636382
46.2510140758341
49.9009276457357
53.700490382907
56.6921206021291
58.8787743179912
60.5342787750413
61.8624638555472
62.9426994095495
64.0296988208257
65.2787206499924
66.8513203750229
68.4353146290265
69.9812007182792
71.4087185502535
72.5621644045699
73.0939749003158
73.775648131997
74.6795770130901
74.9060468654339
74.9461553962415
75.3262681618052
75.4283546508097
75.5580789083491
76.1959379089046
77.1409476560655
77.652222310258
77.8098722790105
78.1936901451772
79.7825062668351
79.7417506744308
79.080213564141
79.1136348385315
79.6182405795247
80.4280798870031
80.7112238904656
80.4958120199244
80.3512787352769
80.8239803590247
