1798
3999.43349933624
650.420452594757
1
128
4
102.72407915057
102.846675325514
102.930408434031
102.803702481651
102.597937809264
102.645060477038
102.782795457252
102.783933033081
102.718736371598
102.729184116633
102.782838533656
102.81142805927
102.762911480306
102.713969896175
102.691199153646
102.69198165299
102.696809915387
102.709285115396
102.713355007768
102.708344379991
102.726666699964
102.739913243207
102.736942483136
102.746924983717
102.739471681396
102.552907721974
102.48463515863
102.529192120149
102.542890171823
102.451889957525
102.561899048957
102.659411353194
102.596489426315
102.608238681355
102.387400564082
102.208547906404
102.341803845934
102.585256983316
102.697250059767
102.378197143911
102.465626342142
102.323709610013
102.241231346055
102.318307329113
102.574088405115
102.651474177955
102.706794841806
102.83306252303
102.786856396189
102.498774268785
102.126211833123
102.256452651228
102.130473483806
102.177907778297
102.45568290104
102.451469253219
102.390724032249
102.256773261006
102.470502450065
102.454483378982
102.222308994762
102.460566727957
102.127604447328
102.053246534909
102.424593180487
102.554747524891
102.061755523462
102.272882518408
101.953142131728
102.069519788315
102.272804067336
101.82136986963
102.065305237201
102.130192124659
102.513479936461
102.262912194573
102.112042901176
101.662362248473
102.129015868756
102.257707166546
102.399590164735
102.407090783948
102.27103925684
102.086507442329
101.915350781576
101.746968410552
101.955703370906
101.986986629469
102.146824445136
102.137591712734
102.426969597594
102.348058940352
102.410613340433
102.470773594071
102.09181429206
101.837358799065
102.161144018803
101.728326446878
102.342222741571
102.540377542815
102.450426614255
102.519398493991
102.128892612977
102.305047294045
102.328508020821
101.810717608979
102.256587577197
102.157017079132
102.150988774136
102.496510756292
102.538024908267
102.641982960843
102.640628931442
102.622123490882
102.474011786055
102.502369054791
102.47844663077
102.274020533771
102.555716198573
102.462182238281
102.525931613775
102.62928703806
102.380992049294
102.359275587574
102.170977980442
102.282239111371
102.557437329744
102.156385168615
102.210297133831
102.075470261763
102.150549951468
101.842874983541
102.165997520065
101.725568636632
101.790114053617
101.457353957688
101.581575368898
102.267529891651
101.83067145834
102.20989804736
101.782607759687
101.811400497329
101.782986659943
102.071587556264
102.241056481595
101.90382634446
101.921713579151
101.833370882912
101.895881530566
102.194184598734
102.239010783074
102.522980148739
102.177131353457
101.955139022791
102.122144116786
102.347552134889
102.439112303801
102.566397550905
102.424051937676
102.342242871404
102.538457456007
102.519081632966
102.513874733092
102.430273194096
102.084753398994
102.073298206471
102.036224319602
102.42466600682
102.172460641915
102.376096822753
102.26072603218
102.218185242499
101.89223117929
101.438136618234
102.032721005264
101.643278364665
101.572016554842
101.962423726202
102.111720441842
102.143245366967
102.166485684945
102.158641182821
102.152867934857
101.82594311457
102.141205378167
101.723040719792
101.143922855254
101.113181915563
101.095527420406
101.622899115021
101.657905746879
101.801699588304
101.848510734991
101.696101160783
101.735215904054
101.525235928607
101.712384946555
101.080286089166
100.931839785314
101.622097486869
101.633220213252
101.675487127312
101.473843586973
101.372589402622
101.367626314758
101.425148860334
101.03978072204
101.188663891144
101.203178545673
101.382987027433
101.738524575935
101.884101078719
101.704608667571
101.703800718782
101.691986079443
101.533768239327
101.546505794297
101.732227153164
101.770695505856
101.244881813029
100.768022124748
101.273399410554
101.640958553779
101.738536452568
101.612430148895
101.504919720553
101.424798494286
101.515332301599
101.590546013888
101.538666941336
101.106066996884
100.824671499865
101.060257175516
101.268636769431
101.305657794699
101.354440858006
101.211735413162
101.148627930537
101.176068984114
101.128930875436
101.133782468202
101.0772531309
100.996558931062
101.029584484806
101.259652893443
101.445735142299
101.34068874995
101.129097606121
101.251040742874
101.39876819561
101.1886255605
100.908776123962
100.830867511637
100.945763265652
100.887036878293
100.965642620386
100.951132662574
101.125391898019
101.257047087291
101.203025573554
101.243287168982
101.07347938151
100.99133156908
101.158637182204
101.04627960437
100.854704628326
100.875560087618
101.079509316001
101.153855717649
101.139534897626
101.182771318851
101.083709334058
101.00026349742
100.969632587339
100.880568197723
100.952424237657
100.95755134303
100.901755321952
100.936946479661
100.891283906388
100.876546726399
100.89360509271
100.741782244326
100.727109684469
100.896697518084
100.836636380151
100.739350205076
100.722679360722
100.737354400268
100.781074862907
100.634562816596
100.492158917039
100.562847365267
100.550629117794
100.472162102502
100.451328352678
100.508253724409
100.444562281242
100.234477024249
100.010782964013
99.8563045134237
99.815012505295
99.9662840960394
100.150472177665
100.24779748465
100.276353830455
100.189982042324
100.086385732143
100.047322527404
99.9123436556306
99.9422883750263
100.056297774891
99.9997500717371
100.056567724209
99.9938439646882
99.9996481678774
100.004959891904
100.02822471873
100.012985799504
100.000605654528
100.015749952182
100.194713006197
100.303462144124
100.322323029182
100.218847708691
100.214532065502
100.279595278471
100.28820576427
100.191687396335
100.143120630944
100.142056476741
100.095190638798
100.044189153722
100.169829753862
100.217769413283
100.071082212751
100.050186392121
100.031035425295
100.1297886879
100.207030231874
100.073705304843
100.035480082903
100.096667073527
100.188846672419
100.204154899667
100.148069553537
100.07688206814
100.023558805034
100.003895572704
100.042486021693
100.059693336575
100.026565717821
100.021113898581
100.102669473382
99.9878993526039
99.9097003233709
99.8979972302159
99.9922724079505
100.05201049988
100.080093067728
100.010365814483
99.9201744981547
99.8991283124716
99.9586073412342
99.9373143502701
99.8712509342233
99.7926797148048
99.8065798640313
99.8622846233239
99.8451938824943
99.7684815253923
99.7235984241413
99.8493264116215
99.9884546801165
99.9124142315121
99.7863774763732
99.7729832455367
99.8002899295187
99.764731732171
99.7432170842539
99.7371286670053
99.7179403449618
99.7037152228599
99.7150194214959
99.6766139468911
99.7367678135363
99.762036297854
99.7228937988969
99.7187202185953
99.8159464036668
99.9116395350347
99.8839284435261
99.8618778849126
99.9525423660551
99.9948909634827
99.8481586740887
99.7556947846933
99.7361467877899
99.6828998427467
99.7528616994014
99.8331361843922
99.7856063952399
99.7855090141497
99.8098627385704
99.8466368331114
99.8577119260926
99.8786541213291
99.9576013554279
99.9956286441324
99.9211586635962
99.8238483736536
99.8649658734981
99.9023424161695
99.9025486011735
99.9376473547167
99.9489486358686
99.9213121620496
99.9032005545105
99.8719111310684
99.8805503883415
99.9310379685976
99.9573312011705
99.9775847065196
100.027904792856
99.9732920786612
99.9404755954109
100.081775539047
100.082260985909
100.032918119838
99.9919588628611
99.9731552551179
99.9897182259838
100.03231204329
100.103958060714
100.099795119669
100.100762811557
100.04884566528
100.049918742071
100.174184651583
100.12308243168
100.041749713171
100.129746944978
100.281238423982
100.325060319716
100.183266857047
100.131694514209
100.166889712137
100.197177693414
100.215641685579
100.231820254867
100.214142747727
100.180612746262
100.114811227252
100.131992992584
100.208016704892
100.239557992156
100.255030775625
100.291025699866
100.271597011875
100.231773751347
100.255558471499
100.268258484989
100.274255340203
100.316313337133
100.274842826514
100.231216080379
100.184825895975
100.164640671448
100.233506837401
100.21103235926
100.20955726106
100.305600414921
100.309100820179
100.263930071561
100.303908964827
100.271055678415
100.163979005734
100.115205358371
100.164412890163
100.244975416384
100.206823781401
100.012711873539
99.9722330813014
100.088480302012
100.127602962388
100.140314254187
100.099136154472
100.114793608188
100.13451123334
100.101014825997
100.016703758507
99.9476012368638
99.9109660058901
99.9272873339712
99.9605360399827
99.9738732015905
99.9229390402631
99.8675905582249
99.85306717083
99.8430011049147
99.8692810565449
99.8885094012093
99.8770328750482
99.8696249413634
99.8670054772636
99.8572098392324
99.8320667206628
99.8364653199273
99.9236850179099
99.9840452712308
99.9758529417689
100.022422525284
100.144961608162
100.233188967996
100.244575861494
100.313212503782
100.314221707104
100.304878795312
100.367733016341
100.38989250974
100.307624229728
100.314367562775
100.250315961196
100.180710712342
100.219335305254
100.216682745119
100.185634611898
100.119055696006
99.9894767453736
99.9827396480531
99.9746378328511
99.9477775092514
99.8284387178374
99.7716162625924
99.6975663603408
99.5864075704623
99.5248163785826
99.4793752552226
99.4198192694578
99.3325850262374
99.2132004921802
99.0641456156772
98.9237525558498
98.7744099432497
98.6902016323761
98.549960757852
98.3636360285706
98.2025561367553
98.029774131699
97.7669395048569
97.5309426283126
97.3097448446431
96.9955070452132
96.6724717023317
96.37513349465
96.0407524265183
95.7052900903652
95.4412675325012
95.1649737468629
94.9057230653239
94.6577195927404
94.4473503934976
94.305860397081
94.1992725648854
94.0162522364038
93.8161531678411
93.6675786043457
93.4499218800596
93.1162052995824
92.8390344599778
92.6236832650237
92.3130339753641
91.9621155308373
91.7125365392314
91.4456976303952
91.1641886462481
91.0033063602332
90.9936805991282
91.0464220551537
91.1985430207177
91.4564085863281
91.8202956581523
92.3016684838658
92.7326497131325
93.0662905120277
93.3734465637382
93.6564778770669
93.9290010103334
94.2145629374616
94.4517661092301
94.5424033685443
94.620827825302
94.6802888980476
94.7635420279373
94.8931935352237
95.0772988233134
95.2656807406085
95.4759000141104
95.6989274988885
95.8951612709016
96.0771771727151
96.2175340284254
96.2636098273694
96.2662809320298
96.2295790966281
96.1269671870478
95.9840694399742
95.8460635779094
95.6745744227623
95.4914732919531
95.1798843862262
94.7334403231386
94.3325000567934
94.0758184571595
93.8725143413393
93.8050203101369
94.0693521825022
94.4709913925827
95.0177962990171
95.6696099384696
96.2165183169568
96.7304326112498
97.2441753806518
97.6238993540558
97.8464884693444
98.0874255791645
98.3395447244962
98.5673706879656
98.7517481152204
98.8620724848531
98.9368471501472
99.1015199032427
99.1730823124514
99.1913153484928
99.2295193422784
99.3302715860446
99.3944304075711
99.3466698634415
99.3537870168869
99.4526030072633
99.5043082613462
99.5502474581379
99.5904744314346
99.5835228258013
99.62438391684
99.6990392783719
99.7317310610549
99.7274229132536
99.7964765136731
99.8506978332555
99.8637866749159
99.9149323767433
99.9108087109488
99.8801824345863
99.9141023161009
99.9416103970196
99.9491154570265
99.9517062300509
99.958345016353
100.007898473838
100.081028760887
100.079048325476
100.033742715136
100.031382009517
100.006952757654
99.9845933794058
100.01770149483
100.057437162502
100.048663289961
100.060488942402
100.124403435454
100.16380334236
100.170485270684
100.185901663085
100.154453639263
100.132645602964
100.129334046997
100.129538994008
100.174856061245
100.222083439493
100.207623893149
100.198936556161
100.229739951661
100.262154060144
100.275563807545
100.285228913688
100.314122172082
100.30343441238
100.274124366383
100.310938986992
100.356676607148
100.347421919471
100.335538248077
100.362354101644
100.401538505263
100.407332218694
100.372326715504
100.393817514073
100.391416617092
100.389538456421
100.408566291075
100.406977303837
100.390291133514
100.404107589142
100.37662315968
100.398048729631
100.438646311122
100.444863759974
100.440023924754
100.388713879713
100.374661968527
100.389396764177
100.362370774996
100.354704180858
100.364605116871
100.390385024967
100.390336829377
100.405500941872
100.40177755117
100.409167999119
100.42180333262
100.380603822412
100.347056084358
100.388816203429
100.452526225925
100.459921397321
100.476761258752
100.504447823412
100.4954223335
100.510339454818
100.556407193754
100.530573023411
100.48351615011
100.461642733155
100.439350692907
100.492823140492
100.53737712784
100.555450040301
100.544967036035
100.521671920923
100.547139180583
100.628027997842
100.690325682038
100.666880067273
100.666926148326
100.692261599091
100.625041307836
100.642544049294
100.650782554839
100.672224825973
100.700491111026
100.742863357657
100.732940787519
100.697742608232
100.744825175604
100.775025371811
100.808963558123
100.861411173445
100.847026468004
100.817565268645
100.822765589563
100.803537602444
100.746599380419
100.752278709946
100.807481726318
100.865738998082
100.804394787318
100.791597993078
100.852313333491
100.809643735111
100.735980707854
100.857266610773
100.942523502614
100.947765338637
100.883479690605
100.856017705996
100.820478007502
100.826167762358
100.784072602891
100.808221460493
100.867739335851
100.908726491941
100.905426423094
100.865645322543
100.82828248598
100.883228920779
100.883580476033
100.830073375404
100.836316640913
100.85496686306
100.859334793595
100.899105925112
100.856176482792
100.874691153852
100.803280273302
100.763508735193
100.736003828871
100.81868585897
100.820159696529
100.80086504768
100.931696396893
100.984587551163
100.866828375466
100.839695102774
100.89129223346
100.906431784359
100.871532214328
100.837292535656
100.858398287894
100.970640785575
101.013504524263
100.99270282407
100.959465925544
101.010446432978
100.99709529527
100.926929191083
100.950452775112
100.996894658523
101.002550685743
100.963855487466
100.934041462204
100.907371216253
100.816656127226
100.875175206199
101.016799346227
101.055624691576
100.948563793053
100.906755032272
100.923870528281
100.933008693303
100.984796872589
100.960701238457
100.953562443569
101.013982505404
100.975303764732
100.952075686986
100.980488104066
101.042067390295
101.010842382575
100.93257197338
100.927894137218
100.89415420855
100.82852001804
100.818042112452
100.864718969884
100.952852602903
100.954727859918
100.985830638124
100.997972729445
100.916902768171
100.826960616734
100.848724319652
100.782137990613
100.683271325734
100.669092465727
100.731903487959
100.788968331715
100.764376714491
100.651927087726
100.663878418763
100.681554462382
100.663493383092
100.678054714496
100.682094954284
100.632437052494
100.568096244284
100.545353102026
100.555227656614
100.546359373122
100.487153780671
100.355226881589
100.225615992943
100.125922121348
100.30887928518
100.931464112053
101.030952195663
100.861228503132
101.043736497168
100.974446134684
101.001212702489
100.966417456553
101.02538309046
101.077476291623
101.075483683779
100.970811480483
100.778128506747
100.867174626392
101.013008604647
101.044889094276
101.118247499291
101.158872913381
101.084927204856
100.863188162672
100.834918001874
101.011851919176
100.863079194132
100.815854378555
100.85058876246
100.692995985457
100.678745366018
100.642421668149
100.654911716479
100.66584037651
100.76466244062
100.762693515535
100.706015337992
100.706704923172
100.75986223038
100.728290186255
100.762590739048
100.774555283518
100.815946036979
100.889827220483
100.845672287985
100.746389772034
100.806757358388
100.824653957044
100.905130977004
100.906216128484
100.857382522325
100.965547230817
101.08576543264
101.017763548119
101.121083421146
101.187563125781
101.318403897964
101.465467679427
101.467421158738
101.261613079562
101.211484009196
101.406571290241
101.633160582212
101.588643503763
101.649788743399
101.581264845699
101.403243403817
101.414206658737
101.564437162348
101.543751837799
101.655114781921
101.636389733365
101.677267189443
101.75571593984
101.790845338976
101.752904758674
101.681400259513
101.588268405985
101.753951885704
101.990781658912
102.071918457895
101.767660074171
101.64909946236
101.92431175604
102.069274329083
101.919537051565
102.056535638019
102.094047110673
101.98714316276
102.04760288903
102.335816613826
102.173467085657
101.916759106308
102.041371673023
102.377818426586
102.192938903439
102.097292790507
102.163759973351
102.390119308176
102.392563126207
102.524555784526
102.552442964253
102.563259150782
102.491349176489
102.627040007864
102.698887562955
102.689809764348
102.49919672543
102.643121464648
102.570491817535
102.38176851799
102.301727890529
102.571490498544
102.934581499154
103.025721508711
102.627902929306
102.841553060681
103.417995285472
103.990343786573
103.330007061386
102.623780914622
102.189668279347
102.07977735136
102.128947019605
102.15121607487
101.996810067092
101.849169118178
101.711014666865
101.668293259349
101.603974092541
101.656960270126
101.667642782316
101.758507493493
101.649599602349
101.420789706038
101.218230374265
101.282207722187
101.335036564365
101.227379323016
101.102460181466
101.173844404615
101.098266980666
100.945178582594
100.966916773612
101.257343675992
101.278356474074
101.210452287581
101.095214127538
101.069162789964
101.036228091787
101.062846142732
101.073094481353
101.152559082084
101.123231092341
101.098542827711
101.056461171053
101.189147072505
101.193670220718
101.206049604113
101.19813470683
101.327082719275
101.298317053115
101.194057280528
101.131458823199
101.26938387086
101.355453572313
101.511141219058
101.424076900459
101.198206412795
101.135922837312
101.497310556258
101.770640364222
101.871892361288
101.783320060243
101.891229386506
101.742534794376
101.797738481197
101.984939275302
102.124695020041
102.360898844382
102.747596197266
102.628417102974
102.352523300473
102.498747998317
102.834582596291
102.482022141067
102.515091489688
102.730704770826
102.598876929232
102.253125587893
102.233580763777
101.990805430789
102.133070579188
102.235092408441
102.478593756255
102.435461987697
102.378802925339
101.929561882114
101.851366061215
101.773939579975
102.011765399621
102.090461952992
101.867665825782
101.575739974804
101.75706277958
101.804746228471
101.781133789706
101.478918992463
101.277700262137
101.393972184362
101.901891247765
101.823880097739
101.754462046212
101.683293412794
101.838679815405
101.653447568218
101.870189087707
101.942608563842
101.985954614039
101.812634666735
101.958980786912
101.788392730366
101.499341367395
101.250908455983
101.175162138737
101.065542438578
100.982969363047
100.791211571992
100.910910244999
100.733681835804
100.661095834863
100.618966455274
100.718946637169
100.561136122149
100.589376622955
100.499195132127
100.513521211982
100.383152853135
100.520061388834
100.620260482958
100.712895000586
100.736296820525
100.851029528062
100.598369885968
100.521055314517
100.592697049999
100.49856321329
100.315607299825
100.243649326523
100.430891006732
100.646426829873
100.467540526038
100.328984990941
100.324201928898
100.496832913746
100.510897185551
100.642095498574
100.590433949804
100.508164635647
100.369861594547
100.335239123863
100.185372451701
100.283446945056
100.303971982122
100.379812946545
100.40444444051
100.440822584762
100.4418547725
100.536617843031
100.604904363573
100.644854700243
100.571641471675
100.368353876652
100.087423466263
100.065766718504
100.107041539305
100.302517688859
100.293398558179
100.357285606239
100.29491040719
100.338658782002
100.272985959889
100.321864309346
100.224867075768
100.220885586648
99.9583056774632
99.7442023336862
99.6164879623058
99.5923676199857
99.7814044159766
99.7993331512526
99.7160358923691
99.7822356129373
99.6269506243576
99.5568327526594
99.3762881293309
99.26348768949
99.3499751732445
99.2774856189879
99.4709037006157
99.527602805516
99.4737074125127
99.4678328138891
99.4568148458941
99.4091057607214
99.3148705073278
99.2849499163021
99.3531175422658
99.3866477461476
99.316921569411
99.2295780101005
99.1561290878436
99.2055246696709
99.1058271439131
98.9273550355186
98.823426319498
98.8697380720789
99.0301777529548
99.0523527139373
99.0636989586189
98.8246362917019
98.756462712674
98.6699839494218
98.8189172996648
98.5336568686697
98.3878261189567
98.1460558281622
98.1069680792298
98.224481667084
98.1917213668545
98.1698707824899
97.9844094883395
97.6747937680135
97.4715061904292
97.2941027569223
96.8680208635198
96.5654627479703
95.7255144306266
94.8920175215386
94.0309749609718
93.0230176064772
91.6717097825709
90.0192013085546
88.1930379144536
85.5665170686414
83.367044803965
80.8492461732672
77.6872315602116
75.7353228132099
73.6380606466925
71.8076238870774
69.8755897772125
67.9918627830208
66.0034092347377
64.3061895376121
62.3055099583448
60.9029170676025
60.3814421372845
60.3437041743715
60.5042190937267
60.7437681246098
61.5653056818149
63.2664590485345
64.1232583315472
65.6487842890254
68.4898965561542
70.218719941701
72.6383551114905
75.2484170837249
76.1506101674519
77.0350594772588
77.8316455108672
77.6140832882598
78.2880894432155
80.9468110251998
82.3557758681488
82.4176109006748
82.4761083493175
83.155174470299
84.3028244029646
84.3883456441542
84.9725130774265
86.4940162065993
87.0557578551867
87.0115173144143
87.5955104521829
88.6234044934011
88.9927309827192
88.3758674490554
87.223111782348
88.1707912062977
90.3558838164998
90.1486771044055
89.5789580388561
90.7066069548553
91.587126240344
91.7123769214004
91.4247794334714
90.8539842735836
90.7355229993501
91.9486858623672
92.7232578466841
92.6201038055988
92.5593247798595
92.5151464933988
92.6291217700961
92.7858907495688
93.1677389089997
92.9912823998277
92.4760830691287
92.4783698198601
92.9701634119917
92.9584795928279
93.0341007795779
93.3053276427591
93.6572552750924
93.9292642498841
94.1402919769497
94.4158742865161
94.6214099901856
94.7295271591697
94.7724583945864
94.8658963797723
94.896391485723
94.9038072776425
94.8527167123555
94.6911011254194
94.1482162083527
93.36642024718
92.1980142891478
91.2683278975379
91.0689383630804
92.2929262587461
93.0829678977126
93.3415597092933
93.7775818274499
94.6436665785154
95.0299262250582
94.9745627343582
94.5395335667237
93.5968933921048
94.1023734972304
95.2568572741397
95.3087517175709
95.4506491113488
95.5711364956723
95.5969792945069
95.6702612324843
95.1194477163649
94.7097139249477
94.4246014492978
95.0407586167613
95.5524576901192
95.6880453826645
95.365665285603
95.6255845127638
95.6008500503208
95.3502016305612
95.2591193440598
95.1041046386761
95.0311866063173
94.9635100255898
95.4757311648184
95.3702858938637
95.5672970985325
95.6282704160177
94.9895160065619
94.00925985494
92.2203386850445
91.0726299606328
91.8227918911293
92.8388964588322
93.9266126073334
94.9036814900608
95.9061071066612
96.6326806970616
96.7729722054377
96.2551345535113
96.2391712512011
96.6867601215681
96.8582563368705
96.8234415169147
96.5075707949738
96.0922681300468
95.5280468161749
94.6636982802552
94.1050082550307
93.5857419055849
93.616203369583
93.1545424215697
92.4867509029844
91.8566920731248
91.5273136769098
90.8649236175226
89.763212758545
88.6137975791125
88.2673466186972
88.2364467926666
87.803589017816
87.8117429069175
88.1496506329491
89.0824748348741
89.8636902197243
90.5506561035081
90.8997136595701
91.0985861591404
91.4419663910609
92.6334680118235
93.4309540394064
93.9152637080559
94.5140414072147
94.9226960424302
95.0203024718073
94.7984176865883
94.6836678878554
94.0568291784719
93.0548214401448
92.1300399775146
90.1593288369048
87.0985654527645
83.5774591810431
81.242416465691
80.7928153314599
82.3730276192532
84.7809976952582
86.5516053918849
87.6488186732916
88.6076734144153
89.2038492489333
89.8243644328785
90.4004560678153
90.454185483808
90.4177521380616
90.6755904471428
91.1680219122597
91.2229280525893
91.0263503524485
90.5349529889776
89.8954852703581
89.1771410038253
88.7872663737032
88.832716636766
88.9507989721496
89.53216906923
90.4592012490705
91.3654696324197
92.4143289593429
93.4939731067394
94.0722836127669
94.3500497546454
94.5086353341136
94.6288323290748
94.625947498383
94.4966322476676
94.2548612916358
93.896902467643
93.3761840528228
92.7153594985685
92.1077966219344
92.1489141049784
92.6920862030391
93.379519520315
93.9008474832335
94.1620262387962
94.1525959523404
93.9130339412752
93.486767984764
92.9502941177452
92.3621900588066
91.7480865572729
91.188215873354
90.7348653509884
90.3082747272362
89.8965499215011
89.3875252338225
88.7019591670509
87.9560002724241
87.2243168478113
86.4575388053602
85.5011510728697
84.2432493605366
82.7629548678095
81.2025238336848
79.7058611292922
78.3583485113369
77.1844757796719
76.1020303856332
75.0600398940563
73.9335904314982
72.7272424369126
71.5083140890804
70.3326646892254
69.1820053211682
68.0494004035518
66.9326038445051
65.8389351966603
64.7174546142637
63.5667657071813
62.4019668338244
61.2944731229209
60.3433592541691
59.6410853167513
59.2135610069966
58.9567107544477
58.7057879171413
58.3380422135128
57.7833051288776
57.08017681541
56.285090128446
55.4671521095381
54.6716078005502
53.9686721480302
53.4275781435956
53.1220353922836
53.0992617461543
53.4055587863368
54.0184193774138
54.9490383171872
56.1718442518746
57.6020845136799
59.1214795079758
60.6244918817239
62.0473345948248
63.5050473443782
65.0545551017418
66.6408875322717
68.1927231353669
69.6967739521467
71.1249272400728
72.4819418591242
73.7741607009544
75.0189229932391
76.2107098735617
77.3560013459834
78.4542682408568
79.5342022016407
80.5833001524273
81.5873454964139
82.5486816814783
83.4685295703761
84.2602203512895
84.8405114429372
85.1576384987235
85.1724372674857
84.8770454073246
84.3853945873571
83.8742686453797
83.5642268142546
83.6818555350635
84.3657753797447
85.4755486376702
86.6378679481396
87.5422661252627
88.1619387490387
88.5494889181978
88.7092450262272
88.6328123764611
88.3578854674509
87.9381156146117
87.4431323991459
86.8689674029089
86.1497293151274
85.2364192878507
84.1620573086375
82.9864489600432
81.7965198127479
80.6187703359861
79.4658690089269
78.3200717767905
77.1305424093812
75.8613472542528
74.463007651666
72.8477480591778
71.0287089175634
69.1048698403777
67.2142930975882
65.5161071417653
64.2106668659149
63.445616210625
63.3526538835662
63.8554175362402
64.4941091681142
64.5591597604419
63.706172257237
62.1312056976426
60.2885359092112
58.5218699223087
56.986907702423
55.6976714598612
54.6808032270497
53.9700487136625
53.5828325084826
53.4448698093777
53.4592398603635
53.5517081241608
53.6818330433453
53.8918609517212
54.3491016458523
55.1227794051494
56.207721148075
57.5428370355484
59.0285961706662
60.5216846098399
61.971364614767
63.3608419581535
64.724292068154
66.0280864465893
67.2597454695494
68.4075235259229
69.411974987136
70.2134406628115
70.7778164360751
71.0558365516252
71.0951914925167
70.9466187272022
70.667759280155
70.3540552028541
70.1466972616651
70.1434786655289
70.3841178233131
70.8101732537487
71.3776369094152
72.0128391556177
72.6412203992337
73.2627619004797
73.9166468389293
74.4760793914213
74.5023937443642
73.0673750583776
69.4944540015009
64.5017561556631
60.0926052703981
58.1978800653458
59.3432661824088
62.1648647450157
65.0454753981512
67.4813490551071
69.5301747206198
71.1908454391577
72.5326454936348
73.670882376695
74.6595834289582
75.5141086513666
76.2116648669661
76.7316252464472
77.085415766879
77.3061094848634
77.4589175965341
77.5651060734825
77.6387982332744
77.6715385036184
77.628566248801
77.4126838971871
77.0361528415824
76.6061923303051
76.2007444227646
75.8850260488697
75.7287498275183
75.7276403393135
75.8037247560697
75.8349544713486
75.7034407603969
75.3231258222251
74.8965178220747
74.74241496674
74.9575265369717
75.3517709613183
75.7641624492874
76.188780764187
76.7524655355092
77.4938959849484
78.299556631739
79.0841196756569
79.7649602281111
80.319819600939
80.834602244613
81.2681210455458
81.6202189027066
81.9429300218513
82.2499473715584
82.5449632522535
82.87704973821
83.2478319330815
83.6133279066138
83.9605320365475
84.2776254334893
84.5075702890637
84.6360216532013
84.6479018294597
84.5031039175751
84.1194112616316
83.5091325820675
82.7945125329121
82.1235292194499
81.6169461863644
81.3736954912697
81.279802811031
81.2544208780932
81.3119434834531
81.3823182048285
81.3956595961207
81.3505238029402
81.0894552398738
80.3932437051389
79.186751734661
77.4229089196186
75.1777165247512
72.7957164513037
70.8408041336673
70.0452547981763
70.6564268693694
72.261741725866
74.1593886062574
75.9026454229754
77.381698778407
78.479120918831
79.1563581568219
79.5681973735198
79.814623905646
79.9431409971337
79.9801520846747
79.968377111448
79.9334178092541
79.9311540089097
79.97273157863
80.0626924192551
80.2622708928922
80.5794605067029
80.9218161196649
81.282524117006
81.6596611483212
82.0130535117112
82.2844871477542
82.5048854517736
82.6933470695059
82.8411179024328
82.9597256482445
83.1459263406381
83.2678709503118
83.2501493321807
83.2688770274022
83.3164451239633
83.3730128546442
83.4015084385869
83.3650630447883
83.4117492116914
83.6278455334066
83.9524567956869
84.1531336881724
83.5247749165686
81.818900929863
80.4440939940016
80.5114178714185
81.6807012376541
83.0696421960158
84.3592734945245
85.5384082800434
86.558349745584
87.3364423523631
87.8844059745666
88.2421237854063
88.5884086934215
88.9742756045117
89.392354992
90.032280901822
90.7904377472396
91.3394218921549
91.7255965307059
92.1363481956936
92.5522062577919
92.9138078780563
93.3507097183789
93.6081731600363
93.6212610390359
93.6068014789909
93.5044314080529
93.1510324105638
92.4352379877854
91.0097015164072
88.6370424095244
84.7897223281733
79.4733604816883
73.4493510191751
67.6651567297701
62.4602124691653
57.4651038603486
52.4729694554422
48.1197456067314
45.1285257898596
44.2605330357487
45.2787997264352
47.7859442272553
51.210668969107
54.8685979649985
58.019502780014
60.3589828810921
62.0416091047864
63.3838034535512
64.3980633946318
65.3733236541812
66.4736942883336
68.0146419552913
69.6488973601457
71.1027599573338
72.1619724892217
73.0912705023427
73.9859566112244
74.6045286929968
75.1504180154122
75.6771340494788
76.2192666641901
76.4985802141451
76.312262788509
76.6341927449211
77.1903741112916
77.9833819265397
78.5048962902032
78.5419649826309
78.5914080045279
80.0849062100077
80.3268252892725
79.7940710196007
79.7476864257717
80.1654092006488
80.9555133842702
81.0881715842405
80.9989546572743
81.4357538624767
82.0158335075288
