1798
3999.43349933624
650.420452594757
1
128
4
102.939853926378
103.042883490919
103.046089431662
102.922940672111
102.828162865095
102.9014349074
102.903460603057
102.854531276912
102.865387370626
102.887180917
102.871049047348
102.892252638949
102.875881737754
102.881544399732
102.859301770711
102.843353837695
102.855418144891
102.892944138715
102.920591532406
102.907261357505
102.899510192208
102.919360149186
102.929638630555
102.927071740622
102.878271190706
102.748824840295
102.646549896774
102.623495687171
102.734898355534
102.685082479677
102.658664402228
102.768370327763
102.814335829075
102.874846981043
102.569977267862
102.393008555234
102.545851451787
102.766934504701
102.892839301438
102.632782299503
102.711927849167
102.54367309711
102.417794378729
102.415721093467
102.695319940215
102.817211593276
102.814395376177
102.902207473617
102.898167972721
102.682527681983
102.348931283795
102.485877202383
102.334902791192
102.320516394143
102.577358856818
102.605768342644
102.54417650513
102.288093116598
102.500317396155
102.575347342946
102.266187058361
102.605656261961
102.388133844082
102.291004632175
102.51646770719
102.61291549729
102.181632245955
102.454436031685
102.100533757807
102.192710178361
102.466020285529
102.060236224975
102.27984802337
102.227991202632
102.522147592297
102.267725291688
102.249159212128
101.922884521171
102.235425351549
102.24209442507
102.467952655985
102.557897836963
102.414875506263
102.209730464515
102.082798931294
101.936781820494
102.016199471162
102.050839524482
102.363874162172
102.357344285957
102.619358228561
102.504676041138
102.486058392406
102.519395460359
102.180290456167
101.897520798448
102.348501602243
101.946319368312
102.419561234135
102.535973840763
102.48366451528
102.690455125046
102.222318553127
102.313082968961
102.422007890734
102.048899253588
102.556954937371
102.342342350953
102.286523658095
102.700833571943
102.71612283361
102.762014656207
102.748695706229
102.779539112759
102.629435091121
102.630636142201
102.555357424402
102.329547043772
102.691008373447
102.662589914041
102.716733798204
102.78255364098
102.480513042596
102.510651582745
102.314223988783
102.355481049738
102.620744626663
102.192075604278
102.261122713109
102.140223181655
102.346975319111
102.064685785014
102.225547168864
101.821959331906
102.163095178978
101.856211639447
101.749000868832
102.261378132581
101.880313300814
102.408413808118
101.979006060894
101.926901816975
101.800203041844
102.127164815384
102.418909710357
102.037126746743
102.038521560053
102.098553697318
102.125703444751
102.298301498213
102.298516729562
102.591406600968
102.387439242017
102.196826197148
102.171011291231
102.374773226373
102.578791492817
102.743796323538
102.5174550463
102.442924842448
102.728688311943
102.676138948375
102.604574576389
102.550249173709
102.251523010164
102.20260951702
102.20452623938
102.585915244042
102.240716400482
102.552115160545
102.411776388744
102.447502211958
102.025190818814
101.532830093511
102.232351351853
101.787211381085
101.681837679491
102.15348808456
102.324108653658
102.361379418465
102.342614703107
102.340133994515
102.390166239731
101.973835648515
102.269279539826
101.961120541628
101.411367248925
101.213140166129
101.046677345914
101.739385624981
102.009032430342
102.172028626131
102.062116297942
101.967584401184
102.015877706754
101.669923082648
101.892319345783
101.524465282052
101.34639682713
101.790490398508
101.868594792842
102.048509231137
101.758114758344
101.60280479636
101.696977043429
101.66710842923
101.14960958902
101.461662553762
101.6125601215
101.641975399699
101.734341753674
101.902072500597
101.868361628251
101.931078515176
101.973512496945
101.73435949852
101.608043248185
101.781556798125
101.959529715511
101.761893271755
101.406807912391
101.633086073955
101.799104324881
101.929963869296
101.892489231069
101.778512601326
101.690327796434
101.79402417281
101.783480851675
101.685765367904
101.267753304614
100.986027236258
101.254065410541
101.425310799778
101.422865330591
101.517134687122
101.492527427266
101.442327293422
101.439038094228
101.448313663802
101.560270398036
101.489521019408
101.431407458995
101.356121142641
101.398965718916
101.592428665296
101.587966616518
101.490152345728
101.681090609739
101.782174004775
101.462105766074
101.298077654192
101.172509685266
101.129548374106
101.094658937552
101.274077039947
101.329634259323
101.426432444954
101.413178697134
101.275279975662
101.392654043094
101.431083033362
101.313006459556
101.37125625927
101.291122974612
101.223491101053
101.16730251706
101.108491899447
101.170755767719
101.297250486143
101.257751140374
101.220387555729
101.231239764443
101.157729945092
101.075712669117
101.213578225637
101.219809337745
101.210648439668
101.117765572437
101.128902296801
101.225457961484
101.168579779294
101.079242771193
101.100746632281
101.050994672707
101.100018940404
101.201542134547
101.13403299558
101.029031783002
101.115554347663
101.116500538366
100.958825691896
100.95059370493
100.809872763451
100.663439933495
100.670686043567
100.692273684263
100.530777807386
100.431686698921
100.393638316719
100.260981725326
100.161459342235
100.318001501327
100.639684080312
100.748853055045
100.688988687838
100.475847201697
100.427491330105
100.29358653185
100.122988978404
100.198016240233
100.348080971453
100.328567112897
100.319964727958
100.391257367173
100.42735048674
100.373971326591
100.396756940771
100.359521063695
100.22268853214
100.245136709551
100.472942559642
100.42322595199
100.409191000332
100.421848124641
100.428572436889
100.517679237798
100.460339952314
100.350391287985
100.398491733888
100.407506824058
100.348992893861
100.2144158097
100.189576013332
100.289847032804
100.280478418123
100.108454932255
100.013939334194
100.18820339697
100.329530927389
100.329805278267
100.307007182314
100.244484015582
100.211031289521
100.300757507722
100.288329621436
100.221782251132
100.177785244137
100.177699141249
100.184254722386
100.129580809527
100.096542348672
100.039309260299
100.055252197413
100.012918063234
99.9787347629702
99.9579188708038
100.037442755398
100.030930913454
100.046760130917
100.082073236815
100.058077974839
100.035099196105
100.032725127263
99.9445515215114
99.9453997509208
99.9848429292914
99.9362130867664
99.8427524336824
99.7769773367692
99.8362510953647
99.8791181768677
99.9181443760409
99.9743530930598
99.8259446644348
99.6731552152645
99.6966301579917
99.8089970256957
99.8060545739779
99.8043853518923
99.7684568843552
99.7782665758736
99.8179411646085
99.8123904215225
99.7046915002319
99.67603351866
99.6983958694617
99.7833723583497
99.7451974216847
99.8142437257664
99.8760233774327
99.8029125777177
99.8369730814334
99.8874531470363
99.9330309589587
99.9657870757211
99.891589974294
99.7930462137442
99.728724279652
99.7981006360408
99.8427348459142
99.8357099090616
99.8193808619108
99.8482314202345
99.850848326106
99.7856619902247
99.7892370438864
99.9630457206204
99.9876958655949
99.9054127496893
99.8480241239119
99.8576297533327
99.8885941407228
99.9456113170111
99.95464752746
99.9565938971911
99.8695878236437
99.8489496407388
99.8605685586523
99.8897055327285
99.8948391618394
99.9940751682512
100.029102447965
100.032356168474
99.9388660045533
99.9399271142477
99.9947586839786
99.9354037347137
99.8959561953404
99.8984778342015
99.925939043638
99.9975062323879
100.072144775565
100.115516209016
100.110709936953
100.053251601462
99.9930614801078
99.9910566979357
100.030133376563
100.073722013135
100.116122932539
100.127601592227
100.175024108417
100.203493040673
100.062792434234
100.051700766156
100.122342830019
100.156749999629
100.158556021762
100.157909148504
100.225739681688
100.227444512434
100.096969201325
100.106853975712
100.199835404535
100.244401053186
100.217333953268
100.248298613057
100.268911994205
100.220220803932
100.248415129369
100.302073669258
100.255598663773
100.221276641182
100.168470338556
100.128690771138
100.126454554005
100.130979960143
100.191097399588
100.190378055192
100.172140653411
100.172782899854
100.171982567951
100.181895001226
100.210414558088
100.254832401348
100.207693002763
100.135619279391
100.208374702349
100.289635045082
100.211521943492
100.088421582076
100.054111317688
100.098099756109
100.165807998049
100.165312319401
100.093299279682
100.117334047022
100.149170340355
100.13646022349
100.024410964046
99.9898285381548
100.020994245311
100.009228897553
99.9707911525504
99.9959467769949
100.034544951447
100.007083099203
99.9619070187051
99.930709333929
99.928491089679
99.9184215828499
99.879967387986
99.8680333159258
99.9441456799157
100.017673342674
100.002333314148
100.005527467161
100.015970257875
99.9926064340141
99.9519925908776
100.035782761865
100.103294889167
100.122323095772
100.195787543713
100.297731146849
100.306938242108
100.29734537981
100.278507645172
100.296414910093
100.29779619824
100.299995635522
100.212605680327
100.1644561008
100.22009398796
100.233153566246
100.244617934688
100.204696401388
100.082569681582
100.059660881212
100.040427025425
99.9864937935223
99.9214401211594
99.9356045519544
99.9191671250727
99.8430842387946
99.8084185998518
99.7786806767167
99.6886216901064
99.5943826487467
99.5452952963123
99.4281260977264
99.3500297507027
99.2908634249188
99.2059103726986
99.0810937961717
98.9610119741287
98.8272309171828
98.7207569509381
98.5117632019576
98.3076843646698
98.0911771240709
97.885209973401
97.670587300467
97.3532106636568
97.1100293699814
96.8509721824478
96.6008233947735
96.3449256869601
96.08474922447
95.8844450601492
95.7635990299407
95.5764191108353
95.4323248741355
95.3280543389508
95.2833727241424
95.1737227881573
94.9504878100171
94.7203032963587
94.5301264603931
94.2631796834066
93.8680288671391
93.4374689441291
93.058328258966
92.7459085786848
92.4433011071751
92.0782542601283
91.8718731899076
91.8107970425571
91.8104503412198
91.9848680165176
92.3706296006919
92.803555585006
93.1666847462201
93.5117343765752
93.8511888469038
94.1903543142296
94.50635497283
94.7888229405442
94.9948191487883
95.1067881978935
95.2400735426084
95.3588573407411
95.4622939255125
95.5552969961505
95.6914801616054
95.8439183884501
96.0128872511362
96.1859376335956
96.3749148720345
96.5562969825275
96.677751707572
96.772841563319
96.7847605834935
96.6803050281253
96.6302629725431
96.6213931366461
96.5487897240338
96.4585154848813
96.3754043420357
96.1148936023953
95.7506551746898
95.3194055204937
94.8750387141206
94.4962370173179
94.2811191639273
94.3104971351422
94.5399451256432
94.9718932448292
95.5224801166201
96.0492852390781
96.5833707967516
97.0751627296953
97.4511033397113
97.7007789284988
97.9607701730289
98.2216707799673
98.4520541261677
98.5618916844923
98.6761520846992
98.797653207444
98.9215939953796
98.985711008457
98.9962666358178
99.0369599559784
99.1082031677624
99.1599321479168
99.1633562494546
99.193431743852
99.2752427990745
99.3228718169375
99.3339092906977
99.3508208592573
99.3671793969288
99.3990822474889
99.4694253549767
99.535734807942
99.5764100839438
99.6131050023941
99.6036608635471
99.6283683751163
99.6660614234227
99.6661665443094
99.6672974429508
99.666220639306
99.7051793144412
99.6865180391202
99.6830134323908
99.7246511272235
99.7818764527635
99.8414878102537
99.8272420969672
99.7746508491299
99.7797853217315
99.7940566368345
99.7932616102647
99.7872186376643
99.7884987135211
99.8051327828692
99.8552792998823
99.8527236270754
99.8473193731872
99.8701750313714
99.9280523804667
99.9267562580674
99.8905997498759
99.8554544497126
99.8725136052527
99.9304250737955
99.9732454917333
99.9384247554954
99.9259994450675
99.9509117077387
99.9497802383697
99.964953159403
99.9947966187268
99.9903575258195
99.9693355896412
99.9824054553757
100.068626602337
100.066610643566
100.014665699282
100.041014907744
100.09213364039
100.10773160204
100.103199825354
100.060092078374
100.106422046779
100.110227814916
100.057224011512
100.083855124157
100.12301900106
100.087713769007
100.098497949924
100.09797269814
100.121476495999
100.132924829577
100.141870755369
100.144872424128
100.09983761071
100.085324704198
100.087822489501
100.075276388559
100.061812102661
100.065984447512
100.06638299812
100.083088361962
100.11030037445
100.109314953727
100.110529411471
100.105561059919
100.1165921085
100.111316609288
100.162815504073
100.204603790509
100.180616901902
100.199084386571
100.221395995599
100.201189711933
100.24943979152
100.271426883766
100.227617232158
100.222115759781
100.236045357228
100.170590156748
100.134815317556
100.180593113133
100.24145758051
100.303250467836
100.325606467894
100.296291796529
100.34660103727
100.37472035111
100.330399413899
100.384303370092
100.43133791991
100.352570106534
100.383932786355
100.395775637151
100.363785030499
100.406936174033
100.500058439566
100.484564281921
100.494143857401
100.536280380184
100.559462760867
100.543359177273
100.541666816379
100.563052150147
100.590586806224
100.596986127837
100.596255983493
100.53377583591
100.545525564412
100.579262306131
100.5914256116
100.60477864891
100.639604368207
100.643147238206
100.603136359503
100.575761705889
100.693766274196
100.751801584592
100.768111978059
100.670127604056
100.572045138658
100.534217176901
100.556815017367
100.559473623627
100.652809799316
100.655612399819
100.70229309649
100.796199438316
100.76010321891
100.651516714228
100.653993071385
100.659344180749
100.615415896687
100.620256664028
100.628502271647
100.584418481211
100.589734253896
100.581224872801
100.622278177412
100.559169218919
100.536219414926
100.563125053035
100.701413360217
100.774560188952
100.684176240658
100.573482636556
100.605230819159
100.638417821781
100.658567310727
100.67704558648
100.687929057838
100.70326908
100.754417495927
100.746518815734
100.661743300392
100.633887384058
100.675068718706
100.662083124148
100.712936318739
100.74408845119
100.742867783793
100.780932255751
100.774284717704
100.722131265571
100.685866758225
100.636261521458
100.668722372181
100.686999410532
100.689347984149
100.668862092859
100.694435267518
100.723271162874
100.667954372008
100.573246481637
100.577700987447
100.664185144753
100.660059812628
100.636277305592
100.722744498077
100.694838075366
100.64053904767
100.64527743834
100.718471931518
100.702865370149
100.65142402449
100.638203911597
100.641676316724
100.670250171967
100.63889236807
100.536338122172
100.549965274247
100.564549613883
100.560811062181
100.560909443557
100.545178027111
100.584578478479
100.676039131301
100.599020215743
100.537620884179
100.52043784905
100.495946993605
100.49896431926
100.474570502608
100.403719833102
100.395053934045
100.363659973706
100.363671045117
100.402715611069
100.395949004491
100.376812587495
100.34180053279
100.26405103631
100.198307492059
100.163787662468
100.150437626429
100.083467840949
99.9659923413775
99.7716906853502
99.9310817972827
100.627402050085
100.698436082319
100.439526557611
100.686176706823
100.747344356698
100.787802458511
100.720185133036
100.731423165381
100.692280972003
100.692360682954
100.621376061409
100.462270127077
100.503843078399
100.583462056001
100.667139222214
100.774675178079
100.843054538896
100.763057411302
100.47608844592
100.455687175502
100.684572803841
100.531401406667
100.425718122148
100.416824280664
100.28524005241
100.329040655855
100.290924608935
100.291850404499
100.325330614962
100.493476124287
100.513487872917
100.465275836037
100.416703083323
100.381486228739
100.345112955888
100.436086517192
100.503690451512
100.561318888165
100.592890490239
100.579754746108
100.434837392207
100.458582656015
100.575055484122
100.619897100044
100.602369475185
100.692721890312
100.763631756223
100.852623836289
100.82499918009
100.785844810797
100.767491650781
100.966913814019
101.107023076045
101.119927356955
101.004619860127
101.033462701896
101.195213596711
101.354123249356
101.268707602935
101.245361246678
101.21088859757
101.162649742178
101.173943268759
101.285598405829
101.283637996535
101.465523088048
101.568961742412
101.737285615209
101.581223924873
101.29057565131
101.351737486133
101.55319425527
101.573964611238
101.543490774139
101.458580693345
101.675620113109
101.670413029811
101.624543966094
101.72281269284
101.839164936766
101.596146927832
101.607245119568
101.734496429389
101.793618425202
101.748689073897
101.785890251181
101.783803584468
101.780061827895
101.92481791506
102.020980631885
101.679537811058
101.688704589478
102.031456555616
102.471320669229
102.340751658283
102.376965714742
102.457034176704
102.445693722964
102.338053055106
102.303490843557
102.16041016413
102.475450587675
102.523933647707
102.449491350658
102.111778270601
102.106543612958
102.377182131646
102.578817955794
102.490455247545
102.66883901368
102.690530432937
103.011202509941
103.356290936201
103.72292852462
103.014304488254
102.391442740876
102.072635794879
101.942869050598
101.738689180261
101.718767040183
101.813630996409
101.81398924426
101.607921546347
101.665947743818
101.683389913323
101.483308203626
101.236731997824
101.259810025136
101.134308123522
100.950109189161
100.824123071229
100.969017791312
101.016535457803
100.9751432518
100.883866482682
100.944524939405
100.88296698337
100.857734830498
100.904980605883
101.041935140538
100.890042423215
100.825734834478
100.81642460992
100.779553469977
100.812477034628
100.960572892009
100.954414931901
100.986370004865
100.918288202796
100.956276200081
100.957584049215
100.978477532736
100.849175948501
100.846452695596
100.903378879456
101.049505839656
101.008298066937
100.900963681055
100.910615836702
101.10252937783
101.139873034088
101.244212624345
101.136521691031
101.195688193424
101.210610023156
101.245506050689
101.333311228818
101.488299906497
101.409187774062
101.492308125944
101.578766783911
101.919870663786
101.967895578872
101.897568728258
102.154701744957
102.48846730257
102.372701016992
102.433768129312
102.627152614246
102.807600293064
102.424834783129
102.34235426891
102.289704719646
102.322880641902
102.14849496271
102.212491806427
102.037668285204
101.945632811444
101.815765132315
102.139948794898
102.207544293866
102.047230130555
101.641097078855
102.164979589734
102.472996183339
102.336131423701
101.844036025415
101.659327446404
101.590608705269
101.680640156221
101.567740739833
101.625213913116
101.402411383455
101.316821719375
101.340779556347
101.62509869175
101.559913388812
101.668274119951
101.76866956638
101.969144435734
101.755913588636
102.01655984393
101.995700251669
101.833071008974
101.554721658842
101.6435487097
101.478836920502
101.465133351915
101.279620887088
101.114098737645
100.926616635973
100.743734670311
100.538458911457
100.745867510769
100.811967455058
100.881231007597
100.656343758091
100.508412406115
100.246258375464
100.316390509621
100.26750576971
100.415475929524
100.348107949995
100.397029988876
100.41656515826
100.604540539479
100.625353886125
100.597150619765
100.300561465688
100.25807173904
100.297254449085
100.181428594578
100.107964325152
100.123788518358
100.273209194778
100.489871392834
100.340904060788
100.24896657639
100.227066024624
100.35347133285
100.285901270126
100.364647567623
100.371356943861
100.361667329697
100.183598375722
100.129557734708
100.025748970909
100.075949380693
100.035449625797
100.183932079441
100.249999389832
100.24278643249
100.179178568264
100.245369910363
100.278949998867
100.338696054584
100.359208228204
100.28860993304
99.9896189568651
99.8121039668267
99.815904172325
100.055824065084
100.07256589851
100.171045826555
100.107360666997
100.133358484964
100.058636054901
100.083229218015
99.9825296524988
100.094565949476
99.8919241748832
99.6967104470309
99.5705299046124
99.552992260201
99.778080652905
99.7773682167139
99.682300927036
99.8103080246229
99.6335564237999
99.4990909890221
99.3340357274896
99.3100561441059
99.4516949593594
99.4046903046027
99.5865489821112
99.5808414818093
99.5305037640177
99.5304734967216
99.5178014342527
99.4963378089084
99.423815982306
99.4217027268537
99.5037191007537
99.5013647835532
99.4011195363473
99.3402312856525
99.2684077317614
99.3290617650108
99.2603727300761
99.1221730342229
99.034762718013
99.0679152105245
99.2714825152752
99.3186675897945
99.329577636296
99.1141985984542
99.078172655147
98.9814337993376
99.1474004215639
98.88397744876
98.8186966807543
98.5593277457057
98.5155688952232
98.688229638228
98.7141327133405
98.7850915297981
98.6756649539741
98.4032794422684
98.2979138298793
98.2038642351934
97.8775680662265
97.8149650260162
97.2238510523287
96.6858073663929
96.1687259228616
95.5844661496631
94.7597428684542
93.763173454103
92.7775710903831
90.800935969727
89.3153975079518
87.9275370164135
85.5158934805818
83.8397862954004
81.948920022537
80.3433099315629
78.6334478207405
76.9459291994769
75.0535638887502
73.6234342844785
72.2618943264902
71.5533302057841
70.8383009427909
70.0898554623152
69.473354900262
68.9958620016116
69.2723446283903
70.7057220727121
71.2746160337215
71.9472926272319
74.6611474517738
76.7846677253095
78.6780387445158
81.3084300263579
82.1329753773724
82.5095278358115
83.0024410324964
82.6631738108372
82.6945691458733
85.2587191447778
86.8139592083271
86.6122222742691
86.3593480683488
86.5418417685171
87.5835223376329
87.6133653319107
87.7972335796954
89.1252451709097
89.6864987382921
89.395469592272
89.607467118512
90.5522691583356
90.8727561713133
90.1646916637601
88.8462678230788
89.357679874072
91.7322142209494
91.6981293726269
90.8223137919281
91.7098218259393
92.6577983930921
92.7729921939456
92.4237882006302
91.8339030142617
91.5548242715394
92.7009003334817
93.5718688165736
93.4295048618196
93.2946434705218
93.2473053870182
93.3494425072154
93.4261867816366
93.8599488887444
93.8084206361827
93.3985746165125
93.4397840238461
93.9705986162085
93.8546182561278
93.721135605636
93.8271078474386
94.107491158366
94.3219575914964
94.4376930947369
94.6272743521245
94.7949628044199
94.8653370195212
94.8889681841338
95.0286192769562
95.1159568216657
95.1652544261153
95.1955487281976
95.208574811485
94.9558970356942
94.5473522403085
93.6206359829395
92.7309817177468
92.2687527647196
93.1721409059726
93.7605431075487
93.7608910839139
93.963881684881
94.8443146205893
95.2076351637662
95.1136514658408
94.7030972042492
93.6461691294929
94.1256899208974
95.4492509820908
95.4520159925336
95.5447872512247
95.6163102495071
95.6128135847449
95.6993591366553
95.088501653341
94.7367837751187
94.5400211494675
95.1030719821197
95.6369579476478
95.8118243913758
95.4309882904015
95.7447565947696
95.7870409627343
95.5540049134112
95.4450947751444
95.2989320909594
95.2191660395633
95.1350742859695
95.7691075720212
95.6365572369374
95.8653320118507
96.0814327788357
95.6316093508768
94.9606728612509
93.7610076283951
93.1560286582917
93.6361002044642
93.9831023753564
94.4597782525477
95.0876763729842
95.9368118752987
96.69423950187
96.9102534745507
96.4033292439783
96.4351311286322
96.9424577622609
97.1659546107776
97.2379484856338
97.0650265692562
96.8219537332318
96.4053904102116
95.6697803926697
95.3246025276011
94.9682818790216
95.1236961044507
94.7822259967374
94.2484137536719
93.7277272943136
93.5485341963204
93.033624001588
92.1231866418557
91.361087584911
91.3515845182173
91.374774307125
90.8079516673292
90.6841020720226
90.7917699041738
91.4482607818506
91.9899798470796
92.5016443962827
92.7028821872724
92.75125156911
92.7946856011382
93.7920559662705
94.4535409157087
94.7485970926479
95.2039207302911
95.601172020349
95.7710053068918
95.6728831782317
95.8307273698835
95.5484510555784
95.0218883713847
94.7537608850011
93.6462002143683
91.6159425286673
88.8464783831519
86.5779724818086
85.5252987342954
86.1857789382346
87.8964080594147
89.252877297769
89.9766222387137
90.795716276432
91.3612326073882
91.9585364844171
92.5847121870379
92.6208131828121
92.4913560684191
92.6981684482883
93.2417132722171
93.3324975192613
93.249751096191
92.9262176244345
92.4490417720969
91.8385706134511
91.5127948631252
91.5756305789632
91.5060850403535
91.7195334469587
92.2705527543814
92.7913617839769
93.538027033977
94.5367746936008
95.0985440614462
95.3642627757023
95.5353637649261
95.6990329672386
95.7475645205445
95.6945693957761
95.5902752750796
95.4100981023471
95.0451552276173
94.4976525838887
93.9341792020515
93.9175381081504
94.2934343762801
94.8126943815218
95.2467355742319
95.5304545315955
95.6124196352367
95.5064730595478
95.2580251660978
94.8984153321013
94.4900772068904
94.041545006371
93.6316396684576
93.3234678784786
93.0269399976237
92.7809845875129
92.4875940646289
92.0225401576093
91.5078770927839
91.0179414045999
90.5107097013868
89.8832124561132
89.0182003962999
87.9428644236191
86.7443272116331
85.5470973255361
84.444192608666
83.500815123913
82.6410648667364
81.8113939273214
80.9151419438704
79.9661462818547
78.9961212320549
78.0511122411122
77.13341708146
76.2329403294994
75.3307945295853
74.438043800173
73.5249102975854
72.5804100468442
71.5942568928058
70.611297463751
69.7191460522571
69.034712701633
68.6170163997445
68.3896358875888
68.2023307667979
67.9477205281758
67.5427218801665
66.9729435077181
66.2879471961649
65.5318552171757
64.7176194590531
63.925269914878
63.2258109977546
62.7043094185115
62.4108980711648
62.424991079201
62.7729416379204
63.4613063792892
64.482090491786
65.7682945071704
67.1761660677587
68.5633980705811
69.8469172709222
71.1211919853011
72.4271211759475
73.7416029258191
75.0209920845319
76.2533863294448
77.4209732917172
78.4906078201075
79.4812662107031
80.448634686432
81.363642637851
82.2207769474318
83.0406971808016
83.8449706723279
84.6295781189452
85.3900679842355
86.1383857346508
86.8788479222734
87.5618205897049
88.1255607630603
88.491831172135
88.6300843840769
88.517867572771
88.2059847970531
87.8103409633062
87.5047215491154
87.4570283002923
87.7968664336933
88.5025859335234
89.3575375862426
90.0977663535364
90.6482310788665
91.0437946936487
91.2814348597962
91.3505638940633
91.2652963850625
91.044029731546
90.762622409649
90.4269238565714
89.9904062490456
89.4289707987003
88.7237434978041
87.9006070457293
87.0533501244505
86.2081159950513
85.3626566981168
84.5204763507897
83.6637985718204
82.7414415823564
81.7209481359729
80.5231053992125
79.1344162281084
77.6003800175268
75.9831016481722
74.430848219096
73.1598230715618
72.3269684685409
72.0882928058007
72.4421033787806
73.0751505555481
73.386707372801
72.9429750296886
71.7746621954569
70.258154413328
68.6957091451795
67.2146870156209
65.8962300858287
64.8149897755638
63.9952271581337
63.4508706896532
63.1460672627652
63.0341292557955
63.0209629569308
63.0360742209972
63.0871913287941
63.3252348480337
63.8560566032025
64.7094573990693
65.8497816464659
67.1483541501588
68.4631807684641
69.7403557121965
70.9193125100978
72.0419946254488
73.1450329171675
74.2068233555716
75.2086785089069
76.105710705738
76.8450459752506
77.4174027104609
77.7639268703541
77.9008419386463
77.8456896163374
77.6244200391858
77.317540388322
77.0576282514127
76.939044121186
77.0107907304819
77.2577957738769
77.6555791720068
78.1545698894312
78.6999076523479
79.2747038174014
79.9408625918612
80.6766651612834
81.1899564372267
80.7066922966034
78.3593188636233
74.2437252499993
69.8842933176734
67.2721544546946
67.4057245872157
69.3758896327768
71.6666260143415
73.6838384075837
75.4137611584421
76.8303498003953
77.9796709281183
78.9815850485038
79.8618406782958
80.5841492008312
81.1759590814486
81.6540584791593
81.9974151627444
82.2053902717557
82.3502010041276
82.4724627034489
82.5687842869583
82.6301270759569
82.6540762178808
82.5641746975649
82.3232382081724
82.0086150983127
81.706273300277
81.4830383403133
81.3653356898481
81.3079389954976
81.3458915612385
81.4049902417432
81.348408197268
81.0789241568472
80.7413421762156
80.5663187630806
80.6337226238648
80.8282947224461
81.0635665205972
81.3579693060868
81.7452439975126
82.2400066231811
82.8083668037188
83.3759181196365
83.8914036387758
84.3364426523365
84.7354631366663
85.0697257673247
85.3326073617781
85.5741836781697
85.8186317166786
86.0477372694433
86.2740030280072
86.5340581706329
86.805597449195
87.0854027631419
87.3735244425775
87.6005336877121
87.7648401825868
87.8475150236292
87.8283332395561
87.6247025760248
87.2369488684262
86.774850986977
86.2867041155008
85.8891355017987
85.6624514086446
85.5358373337478
85.492523628052
85.5366509954393
85.6490009463302
85.7367956951235
85.7665260096161
85.6789637149919
85.3524551434295
84.6606556712079
83.4482337493125
81.7463473084788
79.7810263303062
77.9948064539372
76.9884660998005
77.0980441246441
78.1469014031901
79.5469154538361
80.8723803011584
82.0329438388672
82.9570235909126
83.5914352498241
84.0162957774165
84.2619681428282
84.3636015139787
84.4222933678232
84.4940689282277
84.4988910483727
84.4523580094084
84.431247013141
84.5142641957997
84.6631135540891
84.8405280914179
85.0586375176212
85.2827332062594
85.5340330256655
85.7936410881964
85.9954026724371
86.1856784920825
86.3552049265289
86.5087414257141
86.6213927265167
86.7371766496537
86.8392451621407
86.8550301039275
86.8410375041046
86.874208009213
86.8846641352266
86.9031477181708
86.9070605787899
86.8933018913602
86.9976946268385
87.2608363064227
87.4812054034324
87.1632318800757
85.9887635169104
84.8989838815154
84.7113928045562
85.3540657399346
86.3329007738509
87.313336092864
88.1814232827224
88.9281900714087
89.5101306747876
89.9341224925155
90.3088170385382
90.6493942251454
90.922295186044
91.1497181230618
91.6564872810598
92.3180417934738
92.7195934012193
93.0135682228226
93.3881581804608
93.7619373785218
94.0657081648633
94.3350025050906
94.6086289132359
94.7563213367558
94.7356482757101
94.7142584552793
94.6391256541635
94.3912828749462
93.6455718924853
92.23383804656
89.7058987035434
85.7566859047918
81.020495507347
76.3664644218162
72.0222970082475
67.7046519911496
63.1961593280264
58.8469691081567
55.4507323288115
53.8835987907638
54.3774206009956
56.4279298864007
59.4236158809623
62.7912077665905
65.6236310714776
67.8184933827046
69.218748365353
70.216918650326
71.2507254319757
72.2714939502415
73.2404451971215
74.2051661745387
75.2482465579296
76.4145686340372
77.4925256689457
78.4162753138517
79.0307704927239
79.5500463219507
80.1689690569352
80.5076151384085
80.6518299910267
80.8136377159707
80.822636306463
81.0708752030323
81.4945166902626
82.0138157172565
82.2134968599289
82.2946825488502
82.6514703602679
84.1249871814606
84.1629106966487
83.4980231406902
83.6076673389911
83.821044026189
84.1568698092357
84.2448528558359
84.3515459589494
84.6838813015925
85.1773340418229
