1798
3999.43349933624
650.420452594757
1
128
4
103.590169874742
103.615521843315
103.62028778852
103.600600770214
103.574602223745
103.645353164003
103.646568473947
103.570213757614
103.434129119805
103.480533760707
103.590942263389
103.601656922882
103.479762136418
103.473235851263
103.478193730967
103.447706601593
103.455343189019
103.50427801124
103.55139547697
103.53346423613
103.487797332221
103.503017595865
103.551488675516
103.549318485664
103.485375857026
103.33393990028
103.221282459077
103.215173835394
103.290060234868
103.252332033611
103.333802103585
103.459320633127
103.415958274246
103.470823413816
103.20143769897
103.017746938121
103.160170025965
103.3330920592
103.412980132847
103.089260023539
103.168163930344
103.080824969486
103.09436500349
103.084077421292
103.275686469321
103.404779946029
103.426012776229
103.522383095266
103.456778339368
103.19728630276
102.84809463689
102.953720871659
102.8053119994
102.955723408179
103.182417438691
103.148070085445
103.140133956522
102.938821717155
103.113841976156
103.037627714432
102.808772962096
103.21557168768
102.910372965156
102.832078696618
103.176543676065
103.256722698237
102.637550123334
102.992405452969
102.632374957814
102.749181564475
102.980003692707
102.578702690687
102.839259253287
102.853294189619
103.209811115036
102.855424247994
102.683247775214
102.182058488963
102.753428745983
102.92550556592
103.110598974166
103.142404720741
102.968268805476
102.673412997064
102.476626232634
102.327368182722
102.552620988472
102.589092224717
102.860899847873
102.883905731764
103.185899855678
102.976538150014
103.021657520107
103.095279220345
102.664702066299
102.52156306167
103.016079405653
102.566884692385
103.088451921912
103.125875989271
103.097299072824
103.269065397846
102.84696772879
103.072504099562
103.106145708599
102.586325007907
103.074801804957
102.913673298237
102.936573876427
103.299574326414
103.30138391005
103.332568444093
103.333179340406
103.355261960968
103.177425816538
103.184560189763
103.160782100729
103.013522801945
103.310809443109
103.243056799692
103.359137293184
103.381793002205
103.090148939872
103.097262328878
102.79871050286
102.839638900144
103.109525954542
102.748460624185
102.865215184002
102.668370187595
102.864103604499
102.464965571344
102.591651485473
102.224196918828
102.59155811778
102.129190991166
102.249180143243
102.890379751722
102.373072652744
102.843219008567
102.361232812289
102.361987652623
102.349092185247
102.725266095832
102.869156739118
102.562249776934
102.628397349822
102.434961751066
102.47280533147
102.822539323102
102.841370071046
103.122097253308
102.839371905298
102.733653143557
102.890986921705
103.056938002346
103.138374586525
103.22925390303
103.008691695734
102.938146821199
103.158639792167
103.146774326097
103.157723401723
103.088874988006
102.807553768916
102.726647305633
102.653196887073
103.170039775128
102.970738350253
103.163171259767
102.848682918778
102.870740747273
102.381667474374
101.930015135629
102.761902200755
102.347653442605
102.347982164924
102.687211584652
102.697394007318
102.8010759079
102.853032683578
102.802680339764
102.792980308234
102.344434480663
102.639897883446
102.191152698876
101.639514336886
101.561024049501
101.420682944156
102.184687871564
102.337604115072
102.54719579523
102.52597194509
102.431622974855
102.419591499942
102.047046993114
102.332785266231
101.68308664423
101.582928271321
102.293843632269
102.227630332941
102.302123869181
102.063247728368
101.973944924081
102.100082140556
102.01153492139
101.418866298618
101.634088079075
101.624209811807
101.783945679928
102.099220974238
102.315404161696
102.309125271978
102.168064109617
102.093767068749
102.039351191418
102.058543104999
102.122292938073
102.159381594893
101.777573493009
101.396823301424
101.915828423465
102.156751245588
102.169320281272
102.073951751185
101.975910237002
101.831476877179
101.881165893859
101.934826758612
101.92975658748
101.399895487079
100.961803021224
101.212766370331
101.555787688992
101.690054790539
101.748602041751
101.642070312562
101.57331716153
101.622127714691
101.587248862361
101.532551043127
101.430585575763
101.373570153673
101.356316829142
101.565801555665
101.672860035482
101.609272166908
101.553829736779
101.638700479163
101.712650093853
101.54098210256
101.376117911958
101.275466143417
101.218679348707
101.124869848842
101.269249236185
101.294073046258
101.460256302805
101.564934316013
101.46974737798
101.584127949661
101.485636962268
101.260331598407
101.375107849828
101.364521937879
101.209325431253
101.025913173281
101.081582891395
101.294456551213
101.385736347189
101.341798857363
101.251877521362
101.192803597048
101.240239855983
101.260513192131
101.297386723764
101.196494804475
101.170777440678
101.125565317298
101.074891730789
101.117503446903
101.058387304264
100.93495314156
100.993291958086
101.066575536267
100.97606349619
100.887081195648
101.001740199181
101.037751365334
100.972816387268
100.89153060255
100.834596125305
100.896132299938
100.755955646347
100.629242535925
100.559019215055
100.551340305085
100.543954107178
100.417771895762
100.268378960034
100.160169443331
100.195305386238
100.363644046701
100.473116598021
100.447680966732
100.566248845894
100.410726397806
100.286152948983
100.289704699229
100.081040753351
100.054472237028
100.214479901152
100.187557621709
100.172768457063
100.218717593023
100.316405135828
100.279307628471
100.341528486033
100.285481347995
100.232726623627
100.324163235643
100.530708780194
100.489702089349
100.367663203553
100.283706320871
100.287446404717
100.350709218165
100.326425104931
100.239441466749
100.344166052711
100.442055341284
100.32906277164
100.196940995562
100.314097869033
100.313924780454
100.199804166071
100.165906009866
100.192223662216
100.261541366329
100.350733315867
100.301324083854
100.247003305882
100.208687788606
100.221908108631
100.265256084512
100.251608025268
100.150021464422
100.112882099814
100.223264486609
100.277610232599
100.218951765876
100.120463168617
100.027270973742
100.010885817224
99.9502964608175
99.8948829320076
99.9206535177917
100.109342368964
100.148440352525
100.214635221069
100.203715336652
100.052752994473
99.9228631651742
100.025516644027
100.079767751984
99.9917476312325
99.9169139427062
99.9189214517136
99.9543617859703
99.9401267642119
99.8364742531958
99.847203556721
99.9248520384629
99.997549086754
100.063724857885
99.9544468019919
99.7729911817572
99.8283194138785
99.8994390113715
99.9009394522912
99.8761563299163
99.8408096697298
99.8906324428383
99.9102405698625
99.8546889540877
99.7867066576517
99.740804534501
99.7891398451483
99.8110711517268
99.9146849849467
99.9615521947863
99.9300480976012
99.9385448138472
100.007558018621
100.09561710598
100.062941038752
99.9412420763145
99.9301853874855
99.8670187737438
99.8723905368052
99.9472752567524
99.9025138560656
99.8397217717844
99.883505785099
99.942613931818
99.9714597623619
100.005395073018
100.043935696397
100.088818094282
100.138265045396
100.016836681577
100.023161130489
100.061394230408
100.095890316214
100.113741895895
100.080248104528
99.9991472830144
100.04545824138
100.062726206849
100.036816158558
100.106548091374
100.21681688202
100.180522708443
100.185791857399
100.222091116484
100.228899510983
100.242063038748
100.222511586255
100.245137571254
100.211184496949
100.181214431631
100.23867275989
100.271055735729
100.316335639461
100.381536376921
100.413676754752
100.254798602431
100.247890845214
100.436170381952
100.401349087647
100.331414949723
100.433173626108
100.50257854587
100.47790456389
100.378971018793
100.397678050294
100.407349542969
100.407912737657
100.461663894398
100.519869263288
100.479320041771
100.405047800016
100.356772421338
100.42271212884
100.53756262352
100.553953611121
100.520196067743
100.513501187685
100.553683026132
100.546904327739
100.531469046249
100.580617186364
100.566431693278
100.571306825348
100.636894772684
100.686995712906
100.551235684392
100.527079018063
100.607600262191
100.561843680935
100.50548694111
100.515760072887
100.550935831476
100.580355297992
100.580900993731
100.609544468025
100.55935381927
100.502633637053
100.566542384153
100.597653038844
100.523312223364
100.4599088336
100.486990858354
100.505366672031
100.524193778214
100.523710625554
100.474264826216
100.489618706148
100.465075400775
100.448728579665
100.412709553598
100.39903418189
100.304670417955
100.24920151665
100.268109517164
100.29178559371
100.287671583496
100.317559409921
100.362096916258
100.342385491165
100.303388696171
100.299055219411
100.270851359374
100.298466647534
100.36927759152
100.445143886036
100.427282620363
100.297161379969
100.301930806613
100.384837180034
100.403864667723
100.464302101843
100.539016047443
100.616520304612
100.661276909731
100.672104252472
100.770275575397
100.861234957262
100.759091702178
100.688856334883
100.705326174383
100.729148427771
100.664441348387
100.661354047641
100.714534091974
100.713611340991
100.656550800809
100.580906509037
100.505048603192
100.478492129516
100.454676082931
100.42221599696
100.30990965756
100.261095181791
100.242656183455
100.177891375722
100.127692325834
100.083153325745
100.002068462997
99.9465414350728
99.9009712618853
99.7955582334448
99.6461785092389
99.4922644037756
99.395035217664
99.2347256577068
99.0561925680802
98.9573704835814
98.8140633224913
98.5553543009277
98.3707873203255
98.1644413067599
97.9324494724874
97.7112453778046
97.4504648506578
97.164092541662
96.868418054575
96.5968895279803
96.303592604325
96.0906445020203
95.8867753809075
95.7093305734429
95.5472174301654
95.4282047144239
95.2887036527739
95.1306616535938
95.0002523799159
94.8512390696763
94.6404666229774
94.3660756957277
94.1246838978045
93.8334911242159
93.476706766866
93.1999027653339
92.9741834650675
92.7562990501579
92.5501867962981
92.4892809484124
92.561936419992
92.6718877976622
92.8498148659167
93.1950045815623
93.6899614930195
94.0861741339904
94.4175808337754
94.7218577701957
95.0070470160195
95.2600199043562
95.478819347651
95.6914315988024
95.8485566880816
95.9357355221138
95.9881568213376
96.0974330698347
96.1801915388618
96.3072443504528
96.4858244343806
96.6668900372472
96.8407910477787
96.9970858910005
97.1562413517733
97.2882022345057
97.3790947075959
97.3794910791346
97.3056162087559
97.2313230961135
97.1538715606587
97.0944643612789
96.9718694140677
96.814071686843
96.5368351212386
96.1570521958105
95.7886991328292
95.4953477219649
95.2431275622143
95.1397946574602
95.2917673468913
95.6490034759256
96.1054619390189
96.6331497847167
97.1760720561888
97.6698990281666
98.1044722005193
98.5103937064961
98.7790916811316
98.988902888526
99.2239421419386
99.411093094652
99.4692764919747
99.5869676652523
99.7430908288164
99.8602149382323
99.8884533625127
99.8811104209056
99.8776703629294
99.9834093308443
100.088365732494
100.068830476333
100.055389335234
100.129806443109
100.196958213301
100.214287478698
100.208910654993
100.199145092254
100.232868690833
100.315917074211
100.352215142324
100.359039592807
100.432960487703
100.43874865259
100.448411778972
100.510196461857
100.491238095332
100.480127504733
100.467249960363
100.497329824131
100.522145470039
100.544589161166
100.546657066265
100.543096925414
100.587812535875
100.574471053234
100.559447107484
100.604841181374
100.603069044094
100.589101592279
100.613530533227
100.63558248348
100.620046069294
100.639991464482
100.647073633036
100.672435200549
100.708596532032
100.744695445007
100.74543157574
100.712498796435
100.675380717451
100.700661684525
100.715433643965
100.749244007886
100.747510436249
100.732350216173
100.755727037465
100.787387177227
100.804240794547
100.807327023783
100.798854041724
100.781569386841
100.786917752522
100.855342034609
100.859104537983
100.840696657942
100.847918571364
100.911772813325
100.92365176523
100.889262607394
100.886774234553
100.9263667117
100.89208924666
100.869854803454
100.886774416756
100.875735847505
100.89178193474
100.936426880834
100.905534139324
100.890806304641
100.900219365809
100.928974498129
100.916538460209
100.902572198481
100.902812716056
100.865702271784
100.841653162815
100.867108965847
100.879367941279
100.900299211957
100.902242707128
100.884391436666
100.865079875147
100.844934820612
100.847599263931
100.844681536095
100.849260796643
100.914476805843
100.93933681748
100.941939836531
100.971617348963
100.995349658667
100.969370974687
100.967204074129
100.980936815298
100.95060940478
100.937888432685
100.939950220305
100.914023355582
100.97768806629
101.023996552226
101.026222663222
101.026550529076
101.016624287888
101.018795835293
101.097259032287
101.111713417731
101.063402606327
101.130581753865
101.166067890402
101.086646725162
101.103999310974
101.100133112572
101.154309862197
101.184623525507
101.221976183942
101.249661287661
101.230787783936
101.210904639581
101.247905671546
101.312013880381
101.36723498676
101.323645432813
101.312223277345
101.326545891781
101.343952971087
101.312301573054
101.264726977967
101.220628301281
101.25370270326
101.254528050673
101.313482438351
101.336860531373
101.302864937763
101.267196395095
101.362868546594
101.392619770483
101.43113536167
101.45893060147
101.37028333051
101.302320056215
101.358795688561
101.314532568346
101.34410464644
101.375592302933
101.34339060399
101.356030027415
101.36775166668
101.335816621192
101.377342593206
101.368165356379
101.326569469775
101.379217211744
101.380789105801
101.302429247451
101.266946414334
101.246771830688
101.311029364298
101.257570837026
101.210262398121
101.208681189222
101.283759723826
101.293016218541
101.302107572295
101.333615268287
101.341787297095
101.327675948199
101.383722861583
101.420788760835
101.454517883541
101.454739771092
101.460218704229
101.451038332131
101.412995629905
101.347140778709
101.386695965984
101.40760071704
101.447995561376
101.477046482292
101.462111237243
101.469154413198
101.421024398908
101.372834544517
101.386451626853
101.425905246197
101.431388218416
101.337902306523
101.388751027777
101.490839063301
101.514036649032
101.440411264905
101.387463367329
101.372625128225
101.401976472527
101.465463215506
101.414491957789
101.37400202614
101.430829928055
101.411077260053
101.413668646427
101.413379646979
101.424265399681
101.386040998664
101.371138617364
101.396623266451
101.434236576246
101.385419085183
101.327805802829
101.312252493585
101.381242929022
101.391390437352
101.344067062712
101.311556232761
101.300596409978
101.314065011789
101.309367298676
101.20276815127
101.185739030366
101.182450148331
101.209385947953
101.266928753044
101.219853573926
101.115082742006
101.068844876374
101.04628372897
101.085154374921
101.12756896029
101.095624906701
101.042127888365
100.967838317609
100.956175720296
100.969362419256
100.952887565201
100.932325319614
100.833927942624
100.697277848048
100.538881743279
100.683523310212
101.372114887223
101.517133520879
101.262072970738
101.444366538699
101.427232957919
101.435422187165
101.388363854501
101.458990721872
101.498049828387
101.493313275661
101.327373352123
101.120701732221
101.224259587042
101.343902884835
101.423381559547
101.574840517532
101.636784932876
101.520671228402
101.214343254738
101.217948494736
101.460153687925
101.287610586034
101.189979909881
101.170959509954
100.956231448474
100.928164083754
100.947122027414
101.002079704456
100.955072593322
101.100022434458
101.123661624087
101.05194692013
101.087192388831
101.183709563731
101.174328705929
101.195980815232
101.232333469509
101.279492683962
101.262049483928
101.209427247853
101.178215896247
101.274746873967
101.23563927556
101.149193335678
101.135443867056
101.229214012212
101.3113537247
101.444341321676
101.407196526306
101.373237646867
101.361992002621
101.525825748414
101.752186171647
101.834098664
101.695428354501
101.657656222302
101.710575596422
101.962969712362
102.019651994848
101.896900064129
101.803560049403
101.856395927285
101.863078055709
101.89330888968
101.912050700454
102.092332294969
102.068292133325
102.006981058081
101.964325795124
102.014694868055
102.035004829149
102.028400771337
101.919128175362
102.123653120885
102.401757054584
102.526820229039
102.209662599663
102.12190676484
102.287127426645
102.227867056502
101.943338517381
102.225075733488
102.535543794942
102.54800068728
102.528557389188
102.65795372293
102.45474457919
102.396156904672
102.475258818705
102.507784425222
102.46878795186
102.564158975143
102.617971422034
102.844654847182
102.678236157583
102.754206680748
102.856526104034
102.862101629749
102.864690620654
103.007633849552
102.815895158174
102.73000550016
102.728270102057
102.931826717663
102.80264841931
102.729073622739
102.765064645625
103.133079320437
102.943342772821
102.902075278983
103.096023551209
103.659370006749
103.991483653091
104.139782993204
103.628227811355
103.346806155918
102.959593176809
102.655744241257
102.350120214119
102.258796295555
102.251900006878
102.342855936486
102.101227668547
102.058207553922
102.198690643735
102.222397583602
102.039002456041
102.090262039102
101.895884614166
101.613907971434
101.562000976377
101.715801982935
101.623100082516
101.556468174494
101.604248976072
101.535892416818
101.375788050877
101.388715983163
101.355332710604
101.48934931742
101.479068131442
101.521081039133
101.481581291336
101.50736473949
101.660681611648
101.681837047683
101.477124804812
101.478992074547
101.434246094257
101.512955059482
101.443521958921
101.51284205603
101.509916057419
101.488328369406
101.549026651895
101.701935360693
101.598464676829
101.414046639401
101.292740040494
101.491385166372
101.614292614553
101.804122429825
101.732637850005
101.631196196116
101.546100580472
101.6739421689
101.80858043663
101.938606503354
101.88542050507
102.079687661251
102.075739352054
102.230940864857
102.357876112244
102.471947361322
102.625078572926
102.95692859615
102.912643861104
102.927370785495
103.166231306405
103.260621589468
102.756615228732
102.893372905729
103.03146026349
102.837436884925
102.432005070597
102.624869242364
102.685718915494
102.748280957103
102.391115169877
102.355891912718
102.537966429689
102.733877298622
102.399960226034
102.530256561009
102.509810034121
102.482101542404
102.348803575943
102.311932234211
102.198116085948
102.208923615307
101.993376044232
101.991270097411
101.819223842496
101.643765827951
101.722546233308
102.218063140128
101.943942452001
101.849924613104
101.991211718827
102.351896299815
102.162091117611
102.31723358941
102.314895242228
102.309241480757
102.052953009502
102.108513042549
102.164276360355
102.275268394213
101.798755489707
101.625360552449
101.658956952944
101.437874696348
101.025565139843
101.043229569393
100.991384440891
101.083805986554
100.88683433963
100.871496440277
100.795740982823
100.967149370258
100.971833125251
101.081311338242
100.867441292066
100.901068074147
100.895899949999
100.884746712553
100.859254983235
101.000430529882
100.80642536699
100.754664869405
100.759590217701
100.682073860093
100.608245942926
100.568146468353
100.665286006899
100.851457515299
100.753453455118
100.660899806359
100.611073576928
100.73619255142
100.691815880207
100.796684887377
100.775623304065
100.795917248809
100.678809007828
100.675866547352
100.540084903867
100.502312840061
100.411857969908
100.605137134675
100.685202131706
100.700685276077
100.629816411751
100.696692790081
100.75032981945
100.771311457982
100.745426044098
100.628454756723
100.302525747418
100.178313978103
100.231502629841
100.52053658859
100.533126999056
100.54667247361
100.432146907088
100.515324758045
100.49328473352
100.570074236107
100.415675430625
100.413275791956
100.15292140527
99.9885827772178
99.8832738484358
99.8357839219331
100.049983681161
100.069555064284
99.9657163094274
100.093362910439
99.9360331693288
99.8361164554794
99.6520786726024
99.5666635567568
99.6703873213428
99.5758890395698
99.7811644421198
99.8579983716453
99.8457896255214
99.8111916703067
99.7459124047493
99.7134771091444
99.6309916321463
99.5924581342822
99.6631232506174
99.6983803297448
99.6430520195703
99.6000966657492
99.5063317535179
99.5336601960886
99.4282437229403
99.2457399029162
99.1498915716432
99.19629628133
99.3856870449979
99.4186725954105
99.4019135267707
99.1656279344061
99.1768176359386
99.0700322492157
99.2292958057865
98.9167517882523
98.7995859820265
98.5212826358672
98.4994270167696
98.6429048411734
98.6440955264516
98.6816779016596
98.5409378469616
98.246989749332
98.0751325783211
97.9065945764703
97.519261543001
97.3811772454892
96.688323999018
96.0296180412461
95.3026331508573
94.5068627351412
93.4866834525569
92.2379257204525
90.9147244850651
88.583023418599
86.7996387514222
84.9996523558699
82.3218640937947
80.6353486754408
78.7483997850581
77.1422119393362
75.4348316862894
73.7792905712107
71.9067458928783
70.5654162818441
69.1574915532789
68.0872788908011
67.3379787728974
66.9691455509096
66.8000350751538
66.7519775660738
67.353849216408
68.6401923872685
69.1468258688199
70.4343831504451
72.7492179000289
74.3522444024605
76.3677548836607
78.781536550659
79.5798060188859
80.2803395347417
80.8732069367518
80.7176457623813
81.2095149818985
83.4452872508802
84.6928599399557
84.6267016124949
84.720846191606
85.1786217099641
86.13763445908
86.1720471594162
86.5886920875453
87.8887375890581
88.3877518518196
88.3309274283158
88.7475943032057
89.6302035335754
89.8870816625283
89.2288626367391
88.3186623975128
89.1752237573579
90.9458249675624
90.693582294391
90.1582722304378
91.1656724398289
91.9410866215387
92.0421070954585
91.7522238807588
91.2942040590648
91.2418175123504
92.273528539788
92.9318853005139
92.8139146990627
92.8168431205909
92.7794782206226
92.901769773451
93.0158478379352
93.3812823887418
93.271591273637
92.9124773902526
92.9193004408716
93.3565649402689
93.2476874799541
93.25897738107
93.4979357682538
93.8224353654983
94.0554567095361
94.230008524672
94.4636201680275
94.6235058479245
94.6883384759699
94.7225410142894
94.8500211312048
94.9075247564265
94.90626825009
94.863649634037
94.8028798937613
94.4125664957433
93.7974743152204
92.6960898384737
91.8295917680731
91.5550147753411
92.5863429655165
93.2906780433266
93.5328514977382
93.84747790771
94.675689559326
95.0073183572554
94.8934584392625
94.4850571231065
93.5309176186709
93.9292086746597
95.1090910331795
95.0959733027142
95.2853855764076
95.4005411930778
95.3937966977094
95.494913694243
94.8783508978552
94.4740753263249
94.2195196383232
94.8273186950724
95.3509218814608
95.5388020032376
95.1940951180706
95.5485072836453
95.5380234665138
95.2725395263477
95.1923640718531
95.0429193284889
94.979380844294
94.9113844241639
95.5460206662723
95.4015272746039
95.6404515508792
95.7819655509169
95.1749565348474
94.300074698303
92.7680545631916
91.9379751741507
92.6577969059012
93.4357278688444
94.3369442132817
95.2145983360677
96.1015527070554
96.7754931263934
96.9345698977123
96.3623921672513
96.3533283593146
96.8537479408392
97.0635736732493
97.0962451084496
96.8310946476672
96.4736643233258
95.9562854641001
95.1172381052501
94.6884334811527
94.244896356834
94.3892891969575
94.0198187836873
93.4777553544384
92.9354023731873
92.6675828564133
92.0432716923513
91.098599095411
90.1607123322801
89.8798967547516
89.9132808193967
89.4656415445848
89.493503710227
89.7625248606107
90.5579131116331
91.2189569523028
91.8352146318749
92.0838646323429
92.2441281666022
92.4116168035294
93.4233427109241
94.1262058379408
94.5212918227556
95.0180063879193
95.3807763880252
95.4791999670799
95.2336956709835
95.227227355834
94.7448728042522
93.9501293373956
93.3725234202188
91.8776017340513
89.4060106076715
86.3110450736502
84.1023356250302
83.470279329756
84.6549703184005
86.6711500900139
88.2423632749864
89.1670940774145
89.9961145719112
90.5022261316124
91.0675550233167
91.6540058838195
91.6988127702629
91.6178274627495
91.8229373545516
92.3182836061588
92.3822179901696
92.2774767230333
91.8826689365647
91.3458312495825
90.6925990555241
90.3081729606611
90.3708578556562
90.4322738565382
90.8587096773254
91.6093981633003
92.3307679978584
93.1947336523185
94.1792377214574
94.7321365583711
95.0187949139999
95.1674824882721
95.2620254589541
95.266013630208
95.1852019433863
95.0218045999092
94.7667792976966
94.3212844701053
93.7088892053569
93.1176015203869
93.1625627131785
93.6638572571139
94.2822854535048
94.746194369604
94.9927644565947
95.0009287477533
94.8278147112393
94.5093253874345
94.0600739209421
93.5495468488704
93.0287113777144
92.5578243184168
92.1796879237674
91.814308681869
91.4912899462615
91.1186205448433
90.5789843935797
89.9712298251011
89.3684109977705
88.7646895878347
88.0174225932085
86.9957704421468
85.76307965717
84.4508767736814
83.2054464925167
82.0758589799217
81.0857794932717
80.1762004344893
79.2907965332462
78.3494076829931
77.3674954841952
76.3415878900612
75.3498118587576
74.3901445538441
73.4507632292585
72.5097722902843
71.5727915758822
70.6186413596526
69.6398730161968
68.6477956565634
67.6938215185801
66.8514682959331
66.221517307535
65.8302932049007
65.6059941501369
65.4150677856622
65.1113094511583
64.6360124991827
64.041887122036
63.3679672234326
62.6478193553554
61.9092599486353
61.2357937813101
60.691691045535
60.3395693443639
60.2227546022869
60.3766056613266
60.7948221430139
61.485401379324
62.4375661026924
63.6188986818985
64.9241265788974
66.2186334510499
67.4205287916518
68.6368360033614
69.9443108395153
71.3119908063712
72.6511529997252
73.9461492547369
75.1830195086088
76.3553890096657
77.4649624992006
78.53294755019
79.5630728786139
80.5619630694566
81.5183366497911
82.4435441755341
83.3422254616281
84.2179580061245
85.0755155236081
85.9062107921467
86.6208903447238
87.1738786967647
87.4908422997693
87.5186517548919
87.2666144287671
86.8427261605643
86.3898271801503
86.0898436996796
86.1543678173547
86.716757076312
87.6512825207742
88.6542007154956
89.448971009617
89.9824537022577
90.318512851346
90.4799590001327
90.4468561781042
90.2322329837668
89.8811005898167
89.4760726209906
89.0068272114366
88.4209791845931
87.7069603499
86.852140269378
85.8721790515507
84.8722409768116
83.8909209654884
82.9221208542135
81.9499264759846
80.9625187716636
79.9182678383905
78.7454575093238
77.3823037284457
75.8609632413499
74.2248351590091
72.5863774417946
71.1005748684431
69.9269956801154
69.2058570616616
69.0814718226696
69.5008939097048
70.0875932519876
70.2290914594771
69.571683323376
68.2581223186631
66.7002958033305
65.1653780586914
63.7765445766493
62.6012171318779
61.6795210628192
61.0136126658453
60.5950540794023
60.3853749280222
60.3406184590053
60.3731099454437
60.4181126639815
60.5073201333034
60.7976481386119
61.3629317685929
62.2006716315933
63.2909510104471
64.5545144359767
65.8445112712529
67.1124739164193
68.3230854721586
69.4825476165449
70.6107111506643
71.7022924609925
72.7295211158033
73.6455256168592
74.3816633395301
74.9072674840097
75.1902330076467
75.2347088827089
75.1004613007972
74.8695388182952
74.5676067660221
74.3276639974394
74.295342605232
74.4865714882803
74.8422617146879
75.3377392006103
75.9107711168166
76.4866747423023
77.0795189831362
77.7353494648236
78.3563056975433
78.5404380995142
77.4756409208763
74.4799100096751
70.0415156723981
65.9369608541538
63.9591991239325
64.6792944351545
66.9922577987844
69.4826256632151
71.6448123673117
73.4755996943966
74.9572160667404
76.1701280287817
77.193045542087
78.0845657107989
78.8545348116637
79.4788639489528
79.9526480150183
80.2953348620482
80.5005425880756
80.650598315944
80.7712616295012
80.8400555132439
80.8827746089584
80.8704393418596
80.6958873243076
80.3819331007782
79.9990623863296
79.6278787121022
79.3653610739742
79.245010784395
79.2184482649725
79.269290024682
79.3037441027023
79.1977358493897
78.8687900942396
78.4876534782659
78.3533281883816
78.5189189369167
78.8130964545713
79.1416820749254
79.4912612480828
79.9464093615449
80.5614240740296
81.2408440217524
81.9065192086703
82.5135409836524
83.0070533010537
83.4538671274253
83.8327479828653
84.1238694590361
84.3835664036387
84.6660506752195
84.943921986398
85.2232586819164
85.5396328675436
85.8618333518427
86.1575056109777
86.4414793374758
86.6805532417185
86.8436919263537
86.8866418879449
86.7781059941426
86.4715711990067
85.9551274572126
85.3014513097233
84.6693620942329
84.2364628383563
84.0442471335707
83.971698061665
83.9818328092981
84.025379723008
84.0896237792762
84.1244225257384
84.0790700305837
83.8723728929153
83.3599904098318
82.3938177318853
80.8493578803193
78.8788530769884
76.7867716274967
75.0134283757681
74.2080073552974
74.6504705612902
76.0094610510062
77.6347789610605
79.1445606867908
80.3874670102085
81.2897183428577
81.9112432005741
82.3294455967218
82.5462396708495
82.6331006966339
82.670535757297
82.6965056503745
82.7106403578276
82.7193470071566
82.7479158827221
82.8065743122988
82.8879504224051
83.1502103290981
83.4892653445744
83.7816408072468
84.094515359585
84.3926297953063
84.6095361267414
84.812569909925
84.9720591531673
85.1051138963195
85.1874883746094
85.3278929589539
85.4742959167964
85.4712723401559
85.4467637492754
85.4866179405208
85.4864660002378
85.4827348502891
85.5151766269574
85.5662402132991
85.7486599118154
86.0443310998666
86.2513238009297
85.7439354432388
84.2348636770027
82.9617829975854
82.9158283523297
83.8937098381649
85.1149482159579
86.2343220802299
87.2664039610592
88.1739463030076
88.8243029999437
89.2787307476688
89.632408077413
89.9742454865965
90.2973425778436
90.6396954818648
91.2141834150524
91.8429504103666
92.2509860760967
92.5818078177984
93.0048172054212
93.4362688050191
93.7346805583529
94.0128360066307
94.2563795700754
94.3184531625302
94.2580189307553
94.1538368153617
93.8981483422213
93.3483133249128
92.1997505440965
90.2093652940055
86.9910016083774
82.3463381914412
77.0876792863921
72.1080871126203
67.5280642619153
63.1109060374076
58.7318327407389
54.7056895491599
51.8356139419261
50.9740691674208
51.8392200239178
54.1280532600166
57.209319807958
60.5072245806703
63.2874937213715
65.192771476358
66.4189794326484
67.5511465620242
68.6155546055025
69.6043815686303
70.6619714882854
71.894858358335
73.1191086422581
74.2723932578667
75.1145531556648
75.9026069460079
76.7975687919847
77.5847626470254
78.2721570102496
78.6467524788555
78.7403037556012
78.7491948957132
78.6266317906182
78.7934426632782
79.3409811183815
80.2097649696184
80.5961421493249
80.5314872742278
80.5216488305217
81.9370347813494
82.2094630800922
81.7166232546887
81.8337047741299
82.2591750044337
82.8349908386932
82.8615580993035
82.7330607271736
83.1836167546114
83.5990595378141
