1798
3999.43349933624
650.420452594757
1
128
4
98.834181177375
98.7677337246159
98.7360336697921
98.7884589537952
98.7496868702241
98.7595990220628
98.8760110976086
98.8090768014638
98.7761011521305
98.8111112214419
98.7859807870153
98.7046197384094
98.7088962103447
98.7169601204768
98.6905528083711
98.6802047356497
98.7664058297355
98.890114252122
98.91254327483
98.8737089892758
98.8643774835771
98.7765544952737
98.7248544161335
98.76843463789
98.6873807372704
98.5971707540723
98.764869140191
98.8882512693693
98.7300027325349
98.674070735122
98.8088547446202
98.7910478040725
98.7049764636122
98.7901121657085
98.8205824890894
98.769681292547
98.7725286961251
98.7988871196681
98.8193830720835
98.8067464599917
98.8034138467242
98.7840672645841
98.8008829716058
98.7937087536155
98.8543492537094
98.8626049671679
98.900805330392
98.8950219993082
98.7810801278092
98.6006720167786
98.4971264116284
98.6374994536724
98.741829945439
98.9197874465238
98.9302167031861
98.8410154675247
98.765438464237
98.8036080127987
98.8840941853218
98.6065976691116
98.5758066564236
98.7255165107693
98.6919163930552
98.9225332985088
99.0221469323175
98.8687668930418
98.7929719343854
98.7268785320142
98.5522609825072
98.7844099413768
98.8076047905577
98.713962941411
98.8427240156363
99.000936051469
98.9501319284545
98.7128456960785
98.4897991959074
98.4571325926195
98.9708298598457
99.2050585327161
99.1487869170955
98.9119535008108
98.7062149628053
98.6502612207564
98.532724651291
98.4333130776813
98.7021558379251
98.9409959789671
98.9757798652626
98.9788924842527
99.0065329301839
98.888594097418
98.874141080958
98.64886872099
98.4013428552376
98.7508592170302
98.86584190919
98.7088072749124
99.0039593064395
99.0637481411424
99.0245225531378
98.7690914604905
98.6037801823352
98.7007584508531
98.5257835203978
98.5750457888084
98.951985739433
98.9099457409902
98.9240634936422
98.9146437605345
98.8243698445057
98.8064047689038
98.8063261228287
98.7052932899807
98.6410030478637
98.6678765087072
98.6605760047188
98.7080579074167
98.8885470662326
98.845717976802
98.7681590290895
98.6285591424146
98.7112134271893
98.8855789753256
98.8267967308786
98.9356486359748
98.8994913421452
98.8037723179726
98.8403233821829
98.7998686250265
98.7633784577969
98.5732986772598
98.4386496347777
98.6795036509115
99.0205287679653
98.7649553248055
99.0207622234643
99.2899482493688
99.0762628344039
98.7716180470778
98.6771161564669
98.8127559333193
98.7784708359539
98.9500981837324
99.0446837146299
98.9618065777783
98.9537860818755
98.9551202595
98.9316090149737
98.9343763287413
98.9094102033185
98.8164367808794
98.5685850398041
98.5385645901887
98.7740858572567
98.9148817906438
98.944906754222
98.9639662100928
98.8199031804931
98.7411395072321
98.8027808891978
98.7975039154358
98.6887193519224
98.6676189489539
98.6707230635579
98.553934799206
98.6819116586799
98.9174756355014
98.9847350978084
99.0024762114033
98.9030584006655
98.758882125798
98.2752899032191
98.4305841329149
98.8220803215879
98.6905466922752
98.8354521728112
99.0137711893013
98.9007810115887
98.7490952930589
98.6224161777524
98.5319349834006
98.446959963146
98.4308837453787
98.5990541685975
98.3651196687148
98.2372782172003
98.4212174658455
98.6184854973054
98.7584073758299
98.766091872397
98.700599907576
98.4920998052613
98.3444246787875
98.2122565307656
98.2566516187531
98.3306655163919
97.9737609226747
98.1682666535907
98.500358938769
98.4550482957376
98.3654559031049
98.1816000829123
98.1846126085046
98.2655174466855
98.1551157195226
98.1422803218763
98.0754096211866
98.0339305978339
98.2996556902102
98.4884244062343
98.3620950070138
98.1366755549601
98.0901408900499
98.2200418500131
98.2259184400993
98.2433284339386
98.3029485496539
98.3584434860568
98.2518998318884
98.219669845194
98.2875734483888
98.2360225889762
98.0953885104991
98.0489159482163
98.0690737954168
98.0624010395408
97.9880279163978
97.9649728491855
97.9929120116714
97.7580842435313
97.6663916634352
97.9343511529308
98.015920992667
98.0445434791965
98.0216163224748
97.9575247018392
97.9444080918046
97.9492068891441
97.9066050656965
97.9028533287705
97.7649297913962
97.6110902668319
97.6630394276943
97.7188867347401
97.6310223237067
97.6576010632324
97.73101258983
97.8154829278221
97.8898633723541
97.7742339341571
97.7127137415089
97.6570157998853
97.4860119073612
97.4764174155462
97.6348672013187
97.7417696975672
97.7308818143761
97.6663333147771
97.5346436098601
97.5619969270458
97.5242965702534
97.4893571365981
97.6311082957794
97.6239460552748
97.456458787912
97.5226861846712
97.5675886342305
97.5681559734114
97.5215169365226
97.3919255223405
97.4842122532199
97.5570874475695
97.4910448307206
97.4536349594016
97.3342066735821
97.3456556786878
97.4369458102198
97.4565610937112
97.3790658386147
97.3527015497027
97.3574997978812
97.2253605495965
97.0643829687185
97.0422655308948
97.2187145953788
97.2537069576714
97.148290366154
97.2264418151614
97.2122432597092
97.1332233915622
96.9442075560394
96.9479567697193
97.0352679984702
96.9888752976405
96.8470818726534
96.8598976314186
96.8408811368236
96.7595519464009
96.8110075014884
96.66060981769
96.4831918282387
96.6195733382499
96.7241686896889
96.5959806988286
96.5396138545827
96.6416807490512
96.7054589381465
96.6579654736905
96.5567585731443
96.5498619544172
96.5292803616089
96.5061779629779
96.5417788500303
96.6404901177304
96.6299782495668
96.6471469808957
96.629506012989
96.5692594871146
96.5226365925011
96.570370622595
96.700012552031
96.7696727043199
96.7985565663072
96.6324587519145
96.5315212924375
96.6676534630075
96.770069607605
96.7913334750265
96.6618322462451
96.6043036392958
96.6299003214424
96.7056328280132
96.6509497460986
96.6097091436908
96.6409539271059
96.5513462260256
96.5207169877136
96.6033998783468
96.6689192264728
96.6201898182843
96.5704674869597
96.5864104428411
96.612675065005
96.6887610751513
96.5765098301201
96.4328442519647
96.489464927553
96.4781841999782
96.3936435053852
96.5083644365381
96.5841184643518
96.5297623970896
96.459465794952
96.4251125339508
96.4392064211758
96.4413545057998
96.4194884151944
96.4974375263485
96.4960023077468
96.4169775395348
96.3421973774577
96.269911153919
96.225398779213
96.350777000143
96.4750596691443
96.5136430077632
96.5331267405227
96.399079459236
96.3277951227992
96.3761232117797
96.3784181111582
96.341732673723
96.3740957240181
96.442473227189
96.3801858363807
96.318842240652
96.3870133126433
96.4022520989039
96.4043657117965
96.4260260595053
96.3685563907314
96.3138050227449
96.2961734632352
96.3390946817598
96.3846929378192
96.4291305830477
96.4678409406337
96.4592988843819
96.3444109427653
96.2686643154339
96.3820361923691
96.5064378460045
96.4910340401878
96.3750068153365
96.3589877664177
96.4470333662841
96.5023427504882
96.4553111486244
96.4444112676109
96.5134108262918
96.4619258585488
96.4809385776896
96.5625038229545
96.566500635943
96.4425883741714
96.3755514102182
96.4092853641563
96.3805691892956
96.4224841292472
96.5719446910756
96.6261983544772
96.7077182458674
96.676868148035
96.5289602096973
96.5487616794028
96.7370190727368
96.7232516188474
96.6303841053708
96.5599175307456
96.4792660156526
96.5277189332584
96.5518938763272
96.5483706768762
96.6314673735419
96.7443651623899
96.6943046148147
96.6303692794975
96.7166892162903
96.7672490492918
96.6788151015288
96.5983852409334
96.6132968414814
96.6810561348869
96.7711139950528
96.8305292438909
96.8376200129746
96.7954163657028
96.8504424814217
96.8902394759919
96.7432836557264
96.7319592577297
96.892509212955
96.9124473459311
96.8914255567303
96.8759086476338
96.9160515016341
96.9726401034961
97.0046383323281
96.9173453689654
96.9231205999075
96.9703001420077
96.9833159658969
97.0052715138745
96.9733882669611
97.0200597919301
97.0749517547314
97.0194997306809
96.956870242315
96.9904393709358
97.0095868579184
97.0010046068346
97.0429669732513
97.0407107597425
97.0316494154654
97.0558034119614
97.03751833822
97.0022001803435
97.009504131096
97.0171725645348
97.0498405425776
97.0939398339157
97.0190862426851
96.9502633854194
96.9653112317696
97.0141951838965
97.0790212725365
97.0857983818969
97.0984410542825
97.0428765948066
96.9967869535094
97.0358365986633
97.0986497709242
97.0471948386176
96.9722293420152
96.9627049360283
96.9808568724366
96.9868970354759
97.0502071861547
97.0094844965366
96.9260841631508
96.9101184995559
96.9545161824436
96.9891775412097
96.9556103505907
96.8825851605946
96.8210061759133
96.8451104945245
96.8845364250498
96.8336421985653
96.8961095447101
96.8646814511903
96.8472754548594
96.9025308432831
96.9469880690699
96.9339646844779
96.8665325180407
96.8448631087638
96.8977480775565
96.9073219214636
96.9842908913504
97.1167771241572
97.1800021856529
97.201652622759
97.2221457117556
97.2701665463475
97.3391269576757
97.321680416126
97.2342239266949
97.2463806886483
97.3022857781408
97.2657809451072
97.2652669991131
97.2677532337937
97.2216859748813
97.2410382631916
97.2242470257661
97.1524260199085
97.1485261167392
97.1750365694605
97.1314329449592
97.0802399566359
96.9933697698351
96.9178871819723
96.8880712575996
96.7988124706743
96.7393794425276
96.7345142456817
96.6739324837689
96.5851988183458
96.5183750116994
96.4688856399454
96.4201614066669
96.3982386961878
96.3033829899901
96.1220213888112
95.9580216975081
95.8391456740744
95.6973161124401
95.5148439714078
95.3611193169778
95.2095213804179
94.9918027009902
94.73255903279
94.509044103173
94.2950931176009
94.0653869585263
93.8251434346538
93.5213857402954
93.3094071080724
93.1939116205763
93.0573678301509
92.9122870210106
92.7438942198375
92.61538577384
92.5451626408199
92.3693205617776
92.1430417322501
91.9310566453709
91.6922668288961
91.4813414558777
91.2878352698919
91.0185360632141
90.7410922374842
90.4418988371858
90.1882271501651
90.0056480683845
89.923069981476
89.9111453466753
90.0426562271816
90.2814252327561
90.6277651665693
91.0585025080276
91.3969315454782
91.7066858752432
91.9608182854628
92.2015852561341
92.5019699552404
92.6788840467194
92.7571803220488
92.9004556651908
93.058443820027
93.1401236980809
93.2102059614073
93.2965069726719
93.4285304997457
93.6017364841519
93.749142388364
93.9082803090605
94.0587432420109
94.2201827297123
94.3364831774498
94.4029595705526
94.3858881487579
94.3946729676332
94.2937376399636
94.2061081518938
94.19906918883
94.1410987669479
93.8704073459131
93.5532492033116
93.2838673843931
93.0035146225066
92.6769414781267
92.4176927003068
92.300170186814
92.4052782638188
92.7243477862619
93.1757599616411
93.6636248062875
94.1224605956428
94.5525821255463
94.927711095135
95.2770398017072
95.5404096367918
95.7721967039207
96.0129106938199
96.1490320612506
96.2072399592796
96.2734772423663
96.3328557071423
96.3909727821354
96.5232878815088
96.6197241569069
96.6370342989682
96.681302327014
96.6926673960083
96.7345042013074
96.7808825152233
96.8291397769826
96.8826451337437
96.8714712623823
96.8532919460556
96.8829674647496
96.9502166464057
97.0362747206461
97.0720772366876
97.0469383085859
97.0542671591783
97.1118790180425
97.176577171316
97.2041511607517
97.1740773833341
97.1449882995798
97.175762914787
97.2146109026553
97.250890867243
97.2970582585125
97.3163394204673
97.2904276867396
97.2704573226511
97.3193071960109
97.3504094388989
97.3089600265674
97.3296119475917
97.3702962470766
97.3126172708383
97.3310586958977
97.4098095717261
97.4210324892554
97.4119473167603
97.4444791497613
97.4471520896332
97.3955387226194
97.3928736263392
97.4652352130557
97.495354797638
97.4615119312171
97.4772061808067
97.4831729845578
97.48178376466
97.5010780570414
97.5263552511155
97.5725866611671
97.5920976567461
97.5788692498648
97.5894147292459
97.6074647692479
97.583485546005
97.5893830552945
97.6343217899271
97.5871434504516
97.5924046431641
97.6284450134057
97.6412139477413
97.6766669200583
97.6929754830751
97.668562402088
97.696481414179
97.7308784339856
97.7009256597806
97.6887636442245
97.7129296915118
97.7221081672138
97.735933789369
97.7427781215273
97.7540756724035
97.747458504908
97.6779316441301
97.6689070061297
97.70430959399
97.7339011483754
97.7624404535115
97.7395164735546
97.7078401938264
97.6976365208653
97.7185326980531
97.7451830587763
97.7108958481468
97.6673375523906
97.644426393886
97.6605626160829
97.6835987418057
97.7041127482223
97.7321118211513
97.7540616485348
97.7738005394209
97.7686924937928
97.7717686463394
97.7534766659337
97.7711443086553
97.7800461750364
97.7710643212188
97.7725471313356
97.7672652123409
97.7375899804334
97.7327663400434
97.7858984212193
97.8356771479184
97.8514255000112
97.8753826776519
97.8839618174029
97.9127311306527
97.9645580854938
97.9808257042162
97.9686435571045
98.0082033846676
98.0183321082784
98.0047917255375
97.9689082077927
97.9970744128913
98.001687611801
97.9774028878592
97.9925368323699
98.0229737027763
98.0237838947249
98.0376672396792
98.0586257222883
98.0857017243017
98.1493373535629
98.1508493600704
98.0902012991582
98.0757592033813
98.1149278589546
98.0974744457446
98.0535987881175
98.0816687990219
98.0725167474198
98.1315160983293
98.1703358842486
98.171080305724
98.1793824914503
98.1200937721493
98.0630845097692
98.1301281318588
98.1975769235488
98.1300316979894
98.1042048105099
98.2664759029381
98.3304199518468
98.1696546496369
98.1138902423822
98.1925090013853
98.2125520877822
98.178670513913
98.1198383739418
98.1422949784682
98.1835200119153
98.2427158681026
98.2612391320015
98.2312136057246
98.2070205691088
98.2424540013575
98.2467370002304
98.1787490547362
98.1374595502793
98.1001963481454
98.1681016275285
98.1972845635995
98.1699478356364
98.1740332819111
98.2635578626607
98.3090692930232
98.312969411938
98.3697197066145
98.3232372107108
98.2454679399791
98.2977540137532
98.2673729814028
98.1723264269861
98.1797754759553
98.2283310626717
98.2815971016043
98.3061169273958
98.3616174131993
98.3811456292194
98.3520285921521
98.3731809730806
98.4031527927688
98.3868614238588
98.3027041132144
98.2623878663772
98.3073306098615
98.3022512891059
98.2784053983375
98.3151866130238
98.3708087542389
98.3871777500374
98.3913898750629
98.3765824994369
98.307628694896
98.3305544364788
98.4220108450051
98.3818795690375
98.4001626647711
98.4742670031144
98.4569329113802
98.3971499181308
98.369669291331
98.4198896743353
98.4688004140112
98.3866872021402
98.3275024562551
98.3802830812407
98.4004530759037
98.4109098249725
98.4314794166662
98.3825703344579
98.3896665451629
98.4290590428423
98.4118221528112
98.4242288696263
98.4145311911198
98.3240265175657
98.313415082417
98.3390728619604
98.31787788602
98.3256827464227
98.3763561312957
98.3619030507458
98.2998077504138
98.2958519978198
98.3505102192629
98.3506034027312
98.2321257409344
98.2184351687556
98.2804662407498
98.295937316848
98.2611187534724
98.2284836517999
98.2369134323627
98.2134200432146
98.1832432434862
98.1982251599519
98.3040070801787
98.4358075129788
98.4556706661634
98.4500728954481
98.4385384890692
98.4409918286093
98.4446148811856
98.4334651575401
98.457211410282
98.4950520444612
98.5114935061935
98.4609563218251
98.3401703234082
98.2497774881938
98.3202796435653
98.3821436215175
98.4233493953016
98.510104103021
98.4697057228523
98.39675026876
98.4050809538143
98.449248023867
98.4282709801585
98.3526407283348
98.2086276072719
98.1239747023048
98.1898143532284
98.2921650706565
98.3066670548114
98.3385570156074
98.3945423481856
98.4167391426564
98.412615153767
98.3857912199758
98.4196613078986
98.4767217300718
98.4904064458337
98.4657473375339
98.4196800654746
98.4113535596657
98.4297848157296
98.4540065731368
98.4951708446282
98.4513184389664
98.4253023966616
98.4326181347793
98.4481936856008
98.5435673651576
98.5932243865628
98.5625534273323
98.5299097179187
98.5747132449378
98.7197630335717
98.8149506153334
98.8481929241854
98.7456572215188
98.7108379715048
98.8064711393523
98.9299965649057
98.9984215746646
99.0342872828436
99.0693458432932
99.1035460660213
99.1082856956061
99.1574279234414
99.0665092169526
99.0534450857848
99.2143417467125
99.230870813292
99.0038366257978
98.9237117151301
99.0976474528657
99.2258516204987
99.2410062504386
99.1957886011566
99.1977553805318
99.1271337643524
99.1608297365433
99.2241074711284
99.2156893410133
99.3094393300575
99.3517384960122
99.2958506666255
99.1937591250438
99.1484307565554
99.3845658989994
99.4916479242817
99.385420870952
99.4763245412692
99.5340767167792
99.4287121048857
99.6546056700127
99.8274443551021
99.5724620771947
99.2649535824832
99.249255240147
99.3669966082479
99.4312955466713
99.5981684123734
99.6816658559733
99.7083646866899
99.6972347523098
99.580166743544
99.3266676965611
99.1968432367534
99.411736075544
99.5937846046433
99.5085449270897
99.3772991529452
99.5679462331985
100.118084339669
100.312879324834
99.9670706950992
99.8953571943234
99.9000388962239
99.668502069567
99.3422997734317
99.3906962680768
99.7170425658919
99.747406469913
99.4644346773285
99.3057907038512
99.1633538053439
99.3031085611297
99.4680912496346
99.3032016690171
99.2212092453271
99.2044632069382
99.0655746409559
99.0162601072652
98.9703913683295
99.0758355679451
99.1764143149076
99.1073168863145
99.0002754772998
98.9273919749904
98.8728252217479
98.9238945469713
99.0170398985526
98.9502194732088
98.8192027186368
98.8654727337724
98.9279318693153
98.8959305940866
98.9351573035627
98.9869331938952
98.9127271602326
99.0158514232545
99.1742664801806
99.1143274748741
98.9696913720918
98.9126408380712
98.8503570428371
98.7792275009478
98.8483614888515
99.0373173035111
99.1076786932242
99.0690020909628
99.0450404022891
98.9773947234816
99.000389523299
99.1210379955425
99.1039875953174
99.1194852610019
99.3820394003725
99.6001038142978
99.5778042207659
99.4131065821222
99.2455530090775
99.2216225968078
99.3131601273377
99.1961344417894
99.1272067597407
99.4787404555272
99.7138739746257
99.845918321723
99.9289802445759
99.8383864034819
99.8613125087221
99.9774269984913
100.011690321288
99.967996381369
99.560170626697
99.2727486813416
99.4581579194562
99.4950690395596
99.4311601781985
99.8027427103661
99.9845298812252
99.8565242586005
99.5003237876792
99.4195145117057
99.5490465592095
99.3661654521056
99.2476178538471
99.3904884232813
99.6218940658486
99.5770416946619
99.5025874169364
99.7050783133919
99.6980645085827
99.3653010524588
99.1316213216361
99.2450664696373
99.4647538480526
99.4940171720389
99.2241954914799
99.0284688118306
99.2554103971329
99.5404155197861
99.6980181274313
99.8813529860717
99.7301402278849
99.6027668129932
99.6700350063639
99.6825397583329
99.5963367029101
99.4114783597909
99.1768181810968
99.2584466061152
99.5218786762464
99.3845748458248
98.9435551486983
98.7611536599973
98.749153566352
98.7975632417532
98.9118519235821
98.9388475200639
98.9126105932966
99.048808062924
99.0834995046721
98.9714831622853
98.7697002023862
98.7909425484729
98.9254154764655
98.9208483361029
98.892509591935
99.03469729497
99.0083244133418
98.8885470563435
98.916479867993
98.9167655106794
98.9131509396608
99.0002083418794
98.9766881117671
98.9229321397533
98.8536830434202
98.8189817111813
98.8443453472396
98.882722828436
98.9311501669224
98.9711323779525
99.0328398472436
99.0660357506884
98.9119181530432
98.8998771120372
98.9844539462841
98.9084944175916
98.8414115625682
98.9052536728926
98.9242636767455
98.8984977132833
98.8699421313961
98.9037582638109
98.9468364075181
98.9296757920968
98.8634003281464
98.8487525179107
98.8325197837532
98.9038276605069
98.9702228432809
98.9146285194009
98.8584594613438
98.8780122476983
98.8843857990899
98.8417917690344
98.7714922549449
98.7845631349343
98.7731771565273
98.7409795047813
98.694581364557
98.6359218609903
98.6481764916616
98.7266244751739
98.6508563166202
98.545183002716
98.5222785226569
98.5277854701059
98.5212888463183
98.535201806507
98.4932825233086
98.3655560733638
98.3495497647457
98.4385436434173
98.4439433236248
98.3481399811079
98.2905073204856
98.3809152345519
98.4159940282178
98.3449125650683
98.3545396998212
98.3911340347044
98.3551106441658
98.3217903239203
98.3222019347431
98.3447985407559
98.3640251309282
98.3545501959529
98.2900643191157
98.2297132440131
98.2419933524094
98.2857061642658
98.2202882864331
98.1519896984
98.1827074845345
98.1535251672411
98.1027596563757
98.0724201427426
98.0525015533148
97.9900488860971
97.9523112132324
97.973446727552
97.9446918212986
97.9018584324302
97.835129275747
97.6906480429451
97.6324721624358
97.5603843665865
97.3863055373392
97.2363336462715
97.0033916267087
96.7187060047517
96.37286329343
95.9099873710329
95.2499251076161
94.4828162367062
93.4759459550302
92.2569282308412
90.7678078747102
88.6451238478303
86.8826780845596
85.214751225392
82.7057972064882
80.5219972522059
78.5248012076477
76.6158098604506
74.8245418748924
73.0854906921567
71.3762561131956
70.0331148563433
68.884583733382
67.7192878348774
66.7572617020979
66.1077424749675
65.8396925140181
65.8903722675531
66.5213361014242
68.024463090943
68.7774003127062
69.8812985120828
72.9094981091768
74.3341188417111
76.4588039306096
78.6202961361387
79.3078046248455
80.0525510337015
80.8835100547774
80.8331922196426
81.6091717976027
83.8932529906956
84.7070853881108
84.7636241433368
84.6003991985968
85.2257053483369
86.1637348797609
86.224740052485
86.7087059389738
87.84658299493
88.158476384129
88.0488834927851
88.5934385308435
89.3450633669915
89.5986676744722
89.2737733938235
88.4518873495015
89.6437816417451
91.2924130940496
91.0134672696882
90.6558413844795
91.3630552092622
91.776109543412
91.7229561605389
91.6209774107219
91.3978420477915
91.4548267467417
92.3142593889662
92.6432591211713
92.452086537978
92.3787618636038
92.5501661399319
92.6511505802918
92.8304009284843
93.0168997933318
92.8300995669142
92.5774876880447
92.7076570847499
92.7960877158547
92.6996011643924
92.7340912265741
92.932816362542
93.1745550302955
93.3665103922032
93.5207787659417
93.664308320339
93.7963548388798
93.8845303004823
93.9557998158646
94.0289534149486
94.0970743870554
94.1647890451339
94.1758527413917
94.0350091976629
93.6882018588966
93.1310439648588
92.3401661162433
91.5757240247532
91.5394633017356
92.4158270120571
92.8633585806082
93.103176664688
93.6747058596123
94.1479372107848
94.3840146985745
94.5046154894948
94.3023651558552
94.1332505044626
94.8756282970067
95.2117414030647
95.1883599921632
95.1559286763328
95.1485317457741
95.194407908523
95.1715162752588
95.1638753714125
95.1776181262337
95.1586223758754
95.5226133739396
95.6320000024037
95.4590688289866
95.4169929727029
95.5131063027416
95.4029046932517
95.2991623497204
95.3424643745153
95.3788392232072
95.4084937968724
95.5922288855482
95.7133491019408
95.7369839369916
95.7713310195787
95.6896894197587
95.4542492678259
95.0013749837551
94.1507313827284
93.0010649693053
92.7302365559698
93.1728000616086
94.0409768381235
94.9655875280786
95.7941607642254
96.2490391420153
96.3332145052894
96.3127848434693
96.4268746500242
96.5172526357603
96.4529144921926
96.3080178617601
96.0915421085603
95.7995020975403
95.4751825530683
95.1328043649779
94.8422524638988
94.5670380699515
94.2164522428233
93.7096906520981
93.2188549376448
92.7943497213123
92.4244081949998
91.970462297579
91.4787790593412
91.0600138656825
90.6032165386827
90.0285963189951
89.5646455444289
89.4152104894954
89.7143321471335
90.3333591898444
90.8556588075556
91.3180119386601
91.6444042029585
91.8330159511151
92.3951782254738
93.2191315865649
93.6477849198749
94.0512145079985
94.5394632352032
94.8555432794728
94.9880584486742
95.0466423503779
94.9811306268425
94.762351279343
94.3148786797783
93.4244852160587
91.8646836977411
89.40365156588
86.3808447329715
84.1417338962627
83.5640883316199
84.7690983080403
86.6480909745461
88.0127336579193
89.1337254200338
90.0352859292803
90.5794105882021
91.0925932903207
91.391084234431
91.4503146601368
91.5382968160676
91.8302053173866
92.0708022754865
92.0994140603438
91.9774971161437
91.6586512511853
91.2372509836737
90.8140696672128
90.4958951464467
90.2922077847015
90.2651174405746
90.6263747672628
91.281050731082
92.1083272599338
93.1156843898933
93.8768301026941
94.239036251944
94.4815236457429
94.6788976597079
94.776506435009
94.8017108943454
94.7618215087136
94.6114290219691
94.3426268527986
93.9701052513359
93.5454645308964
93.2139005491322
93.1867789558589
93.454039561049
93.8584519442444
94.2703091766757
94.5475006438802
94.57755382351
94.3997400575751
94.104225149667
93.7216873827045
93.278788026447
92.837653649325
92.4295020917892
92.0359317581383
91.6760545669758
91.3206010459304
90.8735332200555
90.3274748672502
89.7137293508812
89.0970329597103
88.4854806838953
87.7089065159777
86.641745944354
85.3260825758348
83.9153413967473
82.5865821761852
81.3684447802715
80.2799825776065
79.2897187257549
78.294280358062
77.2358808774446
76.1210108031078
74.9888828852029
73.9021384823582
72.8400870907743
71.7839694133066
70.7512086175883
69.7173703154075
68.6414086929771
67.5289365626509
66.3825576794802
65.2853996574163
64.3586663418774
63.6891396491597
63.2885004911556
63.0737522135953
62.8695510922201
62.5294701116986
61.9753811909843
61.2552459149507
60.4323057229709
59.5421250900091
58.6294105372595
57.7753482877411
57.0538699182077
56.5723697163688
56.399779067319
56.5630938303586
57.0704333926263
57.9283151108972
59.0833335199637
60.4898704108012
62.0278992743272
63.5224318852879
64.9039882428909
66.2801540725058
67.7224889313425
69.2170493451433
70.7010120039047
72.1204565524253
73.4287427002553
74.659380028989
75.8634654426197
77.0117100551061
78.0776281973674
79.1132582093126
80.1298867478074
81.1069374484924
82.0559849742425
82.9912865739271
83.9043842092636
84.7775514908468
85.5595071678566
86.1849690569954
86.583498099239
86.6988431803959
86.5378108698759
86.1754340457361
85.7588006536515
85.4770899994505
85.5202302062632
86.0345218849531
86.93495495406
87.9393055648411
88.7703402229895
89.3546016636062
89.744868416188
89.9459520920864
89.9394448837369
89.7705645107001
89.485959424991
89.1021315883348
88.6439194290796
88.0792861454504
87.358115155607
86.4998489472886
85.5267720199093
84.5021848988697
83.4891752503831
82.4686178722082
81.4382231328711
80.3860726339254
79.2479262591724
77.9667270030417
76.4880699910483
74.7934362422332
72.9494361084078
71.1004009184193
69.4230660089876
68.0949148408946
67.265457823474
67.1058443790662
67.5659065570486
68.2038904968063
68.3180526506929
67.4988535335862
65.9180232117002
64.0384689650987
62.1902123216332
60.5060966596257
59.0594032630241
57.9200250379462
57.0699365362718
56.5351906165568
56.2732175120505
56.1849837983951
56.1884065078746
56.2412425490575
56.3665013048298
56.6970571321214
57.351729213716
58.3647764375232
59.6482109179266
61.0892592987664
62.5575164342252
63.9740510511241
65.3177516115151
66.6191574286956
67.8644957636836
69.0568731912742
70.1954111713346
71.2380716429688
72.1016762060856
72.7357149371733
73.1169767731158
73.2436758110343
73.1302227559432
72.8771968515052
72.5963106691343
72.369836954108
72.3098129373321
72.4877794226148
72.8455636301948
73.3423662238448
73.9508349265051
74.5796833441721
75.2279082201807
75.9577549219887
76.6479638738466
76.9259302844327
75.8994606660351
72.7228974453147
67.790078088948
63.0104366786594
60.5386958029922
61.1393717051802
63.6363632753856
66.3505332394294
68.6656293497919
70.634891270423
72.2497922490483
73.5624825211615
74.6875484470201
75.6705453322416
76.5078633094991
77.2148340590652
77.7939880555343
78.2261097042768
78.4835011612586
78.6300229874949
78.7793148248603
78.9232653009831
79.0110729869221
79.0135142489851
78.8793056463133
78.6092453251192
78.2452469665078
77.9038343773075
77.6221579262883
77.4531359352995
77.4332792542063
77.4858309339286
77.5173336860515
77.412409921069
77.0772778395065
76.6711214307847
76.4821788225826
76.6066223644195
76.8935939287057
77.2184127915381
77.5816706587481
78.0564019801729
78.6559948204517
79.3351102183657
80.0352239529111
80.6750300078644
81.2063408080202
81.6838403888008
82.0780082721128
82.4166204010769
82.7283630607801
83.001416010707
83.267832301887
83.5704412828365
83.9189965163728
84.2584012268053
84.5891387572917
84.9036119233224
85.1556159019406
85.3332244816045
85.4094111022025
85.3457813381469
85.0958107809095
84.6113600657451
83.9817070465683
83.3679155492575
82.9098345582406
82.6819656527752
82.6130525080913
82.596541581179
82.6013142940262
82.6553533463812
82.7345027331515
82.7648873934371
82.6162527908786
82.1081603277441
81.1051620103185
79.5280016408985
77.4279584815123
75.1145185258941
73.0718438705878
71.990824173512
72.2643129039005
73.6201716983527
75.3982145106807
77.0487993735713
78.3936965116366
79.4442263107497
80.1992385369824
80.6490871083267
80.8587099453521
80.9690053657348
81.0345161511953
81.0475157427576
81.0638154245396
81.0576662401065
81.0817839871723
81.1758744292344
81.3156975774961
81.5399348371942
81.8113893654823
82.1001075650521
82.418048678554
82.7611542105991
83.0508254434858
83.3108035575389
83.5254143335364
83.6393427409513
83.6938085612344
83.782302978634
83.929517086168
84.071350951205
84.1232297608455
84.0919529641942
84.0440910978592
84.0430141956053
84.0523122699652
84.1110052625914
84.3213303412793
84.6283934767771
84.8314011766614
84.2414941914131
82.7375801444292
81.422974644737
81.3319420811623
82.3265121261385
83.6677060618094
84.9639952442465
86.1130450285795
87.0482182912444
87.7084381266811
88.1397026369693
88.4913666361283
88.8615921087126
89.2260272936468
89.7152016497029
90.3155888949608
90.858402405897
91.3315318495936
91.871464818525
92.426444831814
92.8239292531031
93.0559176767961
93.3324219312934
93.6945105712572
93.8854805619374
93.870143858747
93.7563541296147
93.5153530581384
93.0293911464652
91.9765476274185
89.7485531544932
86.1313155946761
81.2338302416936
75.5003928348188
69.6852284864588
64.2357455096428
58.7984560273388
53.3050808494326
48.3368755007249
44.8875838221708
43.8176386369528
44.7177507273973
47.3540094678896
50.9688722427202
54.7661916747165
58.0949033965282
60.5215979448272
62.1068759088714
63.2231490855109
64.2656608359693
65.5772822254192
66.8148972765589
68.0518437916344
69.6409815886374
71.1646218018114
72.3867579982984
73.4372772707113
74.1585348739297
74.8721666089938
75.5128365550672
76.0822691756305
76.3983413538403
76.3137659449713
76.0883145164713
76.4368975586295
76.9828814920736
77.6906252000465
78.6518090445734
78.8134558479022
78.3085853283774
79.6410102305557
80.2110994285252
80.0489088495751
80.2369547634857
80.2304843861723
80.2751197590519
80.6097437978995
81.1719901788312
81.9794080678641
81.9770772105968
