1798
3999.43349933624
650.420452594757
1
128
4
99.7591586139575
99.7623152706934
99.7426612816157
99.7944342056053
99.7568837374134
99.8015542996698
99.8463203704342
99.7820352015235
99.7929109699909
99.8712732220252
99.7837597969526
99.7199982876199
99.7865470422195
99.855195998701
99.7779090864754
99.6855578690137
99.7516137256307
99.8648514596304
99.8594596262602
99.905214487189
99.8907246872086
99.7612538997519
99.7252684467627
99.8115079648264
99.7688695297258
99.7009980942641
99.7325938567262
99.7835769162707
99.6594441248173
99.6299322884773
99.7413016023386
99.7085640851065
99.6665979197885
99.8049768259756
99.7977635827821
99.7587709068686
99.7513096188185
99.7424295646041
99.6703239954904
99.7067200322468
99.6511997114075
99.6409148267363
99.7635372380847
99.7269346916008
99.8127861675559
99.8152419996472
99.8527866572813
99.8262505746988
99.7062287323205
99.564258773163
99.3466208582879
99.3986377358533
99.3375876285791
99.5726308792313
99.7594793112314
99.7707838847624
99.6584481946581
99.7048292618014
99.8644006395527
99.3981593726103
99.356920093054
99.6189172719251
99.4164881325816
99.6768949835381
99.8536965292498
99.6401300434307
99.622006745333
99.6347404911445
99.1668420497044
99.6952644093183
99.4897156527834
99.2882824042526
99.4757045507306
99.7429733317603
99.7713525120487
99.5741778963254
99.3218475500839
99.1437248242945
99.7397072586084
99.8473698440534
99.8770614339275
99.7226681341415
99.4989715706197
99.5371503660788
99.3976872534155
99.21251643808
99.5592161535525
99.7767198658996
99.7043705921012
99.6575745019832
99.8446948831694
99.6478509749886
99.7711015891529
99.5485005548776
99.0389844656211
99.5582177607995
99.5464182634238
99.2545086099181
99.8827495565744
99.7674708824333
99.8354091435746
99.5652239296632
99.3533489814103
99.7039280419354
99.3457513812073
99.329787137085
99.8665830928457
99.5968937855919
99.7849140097773
99.818023733187
99.7586841277428
99.8328184708532
99.8378025589217
99.6491068762811
99.5849683072122
99.662591081781
99.5574315794955
99.6379424755657
99.8544983808383
99.7650580060701
99.8688257929598
99.6014508284013
99.5075453360272
99.6370223405021
99.4797691135963
99.8288658135634
99.7958631737527
99.5597084784677
99.6222064101048
99.6567500959857
99.5386190085736
99.1181587976016
99.1617759323055
99.3431120455772
99.7628799605722
99.2085810846598
99.8550556185094
100.000477983713
99.6033768205099
99.345243840878
99.1795854657193
99.3217010034843
99.343861980475
99.8130882216075
99.8082814968384
99.6883443620381
99.7659852666803
99.753069436163
99.7219798412868
99.6847057966696
99.7574760944074
99.7552647546921
99.4265877427733
99.2886027154522
99.4087338876521
99.6275040205057
99.7900257670375
99.8236803114971
99.5706942795667
99.6885599908727
99.8341820323359
99.712359258461
99.6930727986386
99.614930072045
99.5499256732165
99.4222193629421
99.6415518972577
99.7815943568001
99.6987387707027
99.8160030730046
99.614121127185
99.4795032650497
98.9035240690047
99.4043315518812
99.5545078632873
99.090573119153
99.3614366081403
99.6486958189976
99.6948944888796
99.6532304314884
99.5109755543467
99.4995606028139
99.4589410305214
99.3195800517907
99.5163356130806
99.2032894967198
98.9667465520282
99.1017849777528
99.3170242928883
99.4397879248716
99.3460844472387
99.4693299377168
99.3800443202971
99.2936231076363
99.1051535118396
99.0555116221087
99.189066772769
98.5900062080582
98.7349351808553
99.1068385821448
99.2550173652373
99.2265145695567
98.9113605902684
98.8896047955964
98.9432212658157
98.7098312685936
98.7726709487896
98.7950225250413
98.6191293619823
98.8089497826242
98.9531895126743
99.003128587814
98.9191826567876
98.8905080399015
98.9142756765454
98.8997495560843
99.0666275076073
99.2205131526207
99.1909701573771
98.8318018650335
98.7325165491505
98.8904041943879
98.9313148331004
98.9438996041405
98.8974674738184
98.708060652209
98.7030953760598
98.738565112258
98.6024680181468
98.5377672118047
98.2003538425704
98.1844899520847
98.5260063024996
98.6311182571631
98.5878302208639
98.5486281845768
98.6058413589575
98.669236823129
98.568309325091
98.5302772575371
98.6302507305282
98.4148521614808
98.1640536905802
98.1684592865654
98.2894111970497
98.2529590218755
98.3285979164795
98.4949473746749
98.4696635321577
98.2948945173706
98.1978405918192
98.1912969084188
98.1553234390599
98.0829684366399
98.0576792013151
98.1082708844619
98.2502401832099
98.3207084854726
98.1825574003801
98.0018291494263
98.0523891280097
98.101725459117
98.109214497342
98.0406089200778
97.8838714642361
97.8160430517577
97.9198243632469
97.9699617377793
97.9302610689701
97.9438589187585
97.8487958768582
97.8141039365412
97.824213482308
97.8363435213852
97.9013446315639
97.8456520859158
97.7167030950128
97.584266224203
97.4977681152623
97.5363798415593
97.6605368709941
97.7406165135327
97.7208757151983
97.5686727102185
97.3840261703384
97.4398022162276
97.5136516723365
97.4308075180736
97.4525651001892
97.4681477641738
97.2762810935543
97.2153336216014
97.2161774819238
97.1966080672003
97.2831651848571
97.1493788879226
97.0792418688424
97.0063355116614
96.9738274005003
96.8602860767555
96.7243685808507
96.7209739227106
96.8201742130931
96.8636582299761
96.8072911895373
96.7812017109992
96.8903045342341
96.8983174575925
96.8122109743633
96.6916665288304
96.6682494249593
96.6421386674474
96.6311105658488
96.6363373664293
96.6854122023094
96.6794882462649
96.7263920049031
96.7572632288171
96.7038997187929
96.6524245808542
96.7372148509144
96.8338363006389
96.7456471105345
96.6726420860343
96.6004139767488
96.6057342179359
96.6785105519707
96.6490078184911
96.6238420536597
96.5850643516965
96.5638538943681
96.4702891677055
96.4616104409139
96.5267682836835
96.4613704320719
96.3614338856884
96.358851152618
96.4636876725172
96.485878256386
96.5014459971396
96.4000392492897
96.3422579081212
96.4281536954754
96.376656430946
96.3329177790466
96.2433832644131
96.0737831925863
96.1587485774609
96.2500676019855
96.2077281033836
96.2091382496344
96.2116433702972
96.1236007598434
96.0428998404119
96.074133595743
96.1137218051611
96.0913875016369
96.1042807744336
96.1297025285527
96.0573684609046
95.9947795394011
95.975693877442
95.8976741367605
95.8463736208424
95.8460927475768
95.8947377215481
95.9509768861616
95.9947307931314
95.9604555849275
95.8998601601593
95.8343162162329
95.7133903206084
95.6678883375752
95.7497693819041
95.7842956079768
95.7158469171163
95.7167422123648
95.7370607224844
95.6757485181904
95.6699436523158
95.7249267181641
95.7115296279121
95.6970645994418
95.7603770098467
95.7592263719617
95.6997867669459
95.7071886513824
95.7749911765261
95.7226646643589
95.590240351135
95.5870477211805
95.6831681845538
95.7167607349204
95.7468040571465
95.7614871795199
95.7376257021535
95.787431195595
95.8676328067477
95.8396487724767
95.8248089156788
95.8651404245635
95.8490723695578
95.8156566226242
95.8515308814862
95.9643433254272
96.0124281864522
95.9869597619187
95.9839276579975
95.9717545630006
95.9686898744878
96.0963650538406
96.1930472282741
96.2263850849485
96.1912483736915
96.0897364698356
96.0460936083187
96.0989319959372
96.1310770062114
96.1087145072759
96.0631063670027
96.12780651865
96.2530410672782
96.2509625777826
96.1888912022578
96.1803023868753
96.2650831622116
96.2405363829233
96.2276291393576
96.3693129809088
96.353765622224
96.2408963210652
96.1911327509392
96.215654004281
96.2665425456096
96.3235120045631
96.395979768163
96.3929784591986
96.3763164837698
96.4453165584633
96.4647515258055
96.4330906634734
96.5041740859094
96.5905737206982
96.5800379814775
96.6101349928097
96.5705914935191
96.4912960323847
96.5846975655815
96.7477852549321
96.746799654704
96.6976611656178
96.7231292530619
96.7241656133016
96.7664888751736
96.7750615819274
96.7688000466365
96.7775401728723
96.8019775282193
96.8187796596549
96.8271679960335
96.8179768454911
96.8752661732842
96.9993280230259
97.0088414358929
97.007688524124
96.9613774535546
96.8483672172555
96.8675831661973
96.9180098898497
96.9355338896278
96.9188702955871
96.9612721452422
96.9473194354316
96.9161540996992
96.9679233977108
97.0041874968424
97.0180243973876
96.964115453853
96.9590961146519
96.9637007100837
96.9534248817228
96.9964139976282
97.0188826629576
96.9683466961247
97.0119212173043
97.0237897158517
96.9201969458886
96.9340897988941
97.0389342740992
97.0019242629693
96.9328567506345
96.9029207702226
96.8836019430409
96.9020087024852
96.9407934926481
96.9440820818755
96.92856827967
96.9232966158655
96.9095426555976
96.8985664145524
96.900888951326
96.8965605060328
96.9795714414783
97.0261804676113
96.9778319745016
96.9362265731861
96.8900227956211
96.8790248099299
96.9416383488056
96.994004956433
97.0146677306374
97.0826356444592
97.11284894974
97.1628490765252
97.2257710831102
97.2593833570158
97.2890464991198
97.3185916306702
97.2951921805267
97.2989195955589
97.3441068678629
97.3792892013234
97.3717277957032
97.3437158963605
97.2918356516726
97.3180255922663
97.3774027208762
97.3562191611721
97.3074005311972
97.317809730475
97.3348369321068
97.3230004010126
97.2418895460172
97.2150004247439
97.2143828144534
97.1560368572891
97.1251044074337
97.1181421442159
97.0658503649311
96.9929260715297
96.9638080239857
96.9531938536131
96.8824672552914
96.7963849705255
96.7101022952695
96.6101375326668
96.5126268944418
96.4097143550379
96.3267416062509
96.1782541313284
96.0419079433827
95.9308175955995
95.7707851871197
95.577783618054
95.438268864442
95.2743020050922
95.0526733202204
94.8717359973683
94.6818978286595
94.5309108028606
94.4178698029139
94.3116156430624
94.2226754665877
94.1436511321861
94.0590336302218
93.9907182013846
93.9011792045901
93.7668358630301
93.6363918821574
93.4585288675588
93.2467343650022
93.1126082687759
92.9575910381378
92.7680583833227
92.5870646733195
92.4097016687827
92.2697426129421
92.186215659636
92.1723377241485
92.2366443309047
92.3442448564569
92.5535321782711
92.8029228513114
93.0629147027501
93.3078858373444
93.4861482076349
93.6361225721636
93.7884511432156
93.9346793023903
94.045882728267
94.1370985329401
94.2703664195901
94.3369307692049
94.3252534661002
94.3788333002345
94.4982235912643
94.6431489342881
94.7762814233699
94.8866770837762
94.9795123333837
95.1207874314788
95.2084690530712
95.2391388276542
95.2585024655518
95.2568683349401
95.1732507299338
95.1364197643435
95.1322555573792
95.1183437147574
95.0097368032831
94.8541113842592
94.687486986473
94.4762130227388
94.2593647331045
94.1003178435801
93.9892295054982
94.0057619626987
94.1536069173607
94.44129972207
94.7642346763298
95.0862874080158
95.4009147789007
95.6515568124807
95.90454946095
96.0795714682179
96.2350054942257
96.3936922284514
96.491724234658
96.5919067812566
96.7333169057331
96.7695772498542
96.7652044428862
96.8603979516411
96.9191900387146
96.9408151569458
97.0022011090442
97.0069646131982
96.984655919163
97.0405029374352
97.1160663826899
97.204412338562
97.2437262674557
97.1781918508655
97.1669051563783
97.2708549977592
97.3730592482692
97.3566613250065
97.3027896503239
97.3590431903579
97.4500575713167
97.4734872911425
97.4203306825589
97.3827582273737
97.4193689595075
97.4481829985302
97.4840913654263
97.5522479275913
97.5980256110797
97.5988911132844
97.6167190193205
97.5988158531982
97.592967231172
97.6494524194456
97.6410554051035
97.6216926749498
97.6330542548287
97.6202529977625
97.6486507023219
97.6956797920951
97.6976921962856
97.704232861959
97.7374849762522
97.7313734420137
97.7040777645879
97.7107192363261
97.7756906562865
97.7925407985696
97.7642724481267
97.7853395493914
97.8124659136888
97.8010682159172
97.7830723862767
97.8175224646364
97.8907519355059
97.9213730625258
97.9075983730911
97.907460471217
97.933924595797
97.9293170444944
97.9337074297154
97.9431460772758
97.9334177728775
97.9563213850256
97.9699889820463
97.9556854899242
97.9993405966301
98.0179874923817
97.9991885714531
98.0412314773011
98.042542038014
98.0159953505402
98.0365861900318
98.0521413393271
98.0612821629703
98.0649656010845
98.0682502579823
98.0966647522644
98.1014587042149
98.0501788454083
98.0481411897608
98.0852403626275
98.1265628740912
98.1259395307604
98.0647284829988
98.0457373029039
98.0788749808122
98.1155862804655
98.1032384056835
98.0398980602949
98.0414543289221
98.0708770508725
98.0679036133997
98.0548830486216
98.060816911624
98.0805013022284
98.1107463137238
98.1364638916147
98.1401293222512
98.1394000839988
98.1326856278862
98.1515906457529
98.1928382516658
98.212989774504
98.2134265355515
98.1931465415233
98.1510424902032
98.1216378877094
98.1566412431385
98.2495649344358
98.2890269662778
98.2463277839237
98.2415803852587
98.3293761147521
98.3617939635389
98.313518718498
98.2906999992599
98.3802837733315
98.4270274114052
98.4040595574688
98.3791028257376
98.3620516474948
98.3484553125737
98.3542911632701
98.4355287495568
98.4936937220798
98.4469996657643
98.4374695887315
98.499232307772
98.4870445707675
98.5068408211647
98.5277814077988
98.5274234011072
98.5261974363086
98.5578667639559
98.6120850319789
98.57733519439
98.4954135141073
98.5206347785527
98.5500229526683
98.5088915478039
98.5321019798424
98.6200613471805
98.5913473909552
98.5631735157903
98.6451835292256
98.6445504488442
98.5577441219449
98.5153920867457
98.6173760433175
98.6960301185172
98.5985194725062
98.5554229244395
98.5934255597893
98.5987700608304
98.6230097111206
98.6280603384101
98.6012267813668
98.6331650996019
98.7001155863685
98.710790579605
98.637712287385
98.6254315568885
98.6752315496767
98.6908183085676
98.625899322083
98.62341078735
98.6382018215221
98.6112450527851
98.5932007975274
98.6060516936536
98.6039200364179
98.6945779983994
98.7404244960893
98.711534374065
98.7119103154293
98.7369886647529
98.7343893631791
98.7214077315116
98.6834015724288
98.629437388823
98.6460167466369
98.7080429273506
98.7728544249591
98.8098483031669
98.7546653940419
98.7281987659347
98.7232978430518
98.7043693244955
98.6525077249199
98.6748180911181
98.7206634476203
98.7172772394181
98.6852390340432
98.7167792607894
98.7527248389709
98.6975229524667
98.6742599455873
98.7606982680084
98.7575498025913
98.7135058578254
98.6996702392863
98.7418797495575
98.7773254993079
98.787200599121
98.8282331220051
98.8401935667255
98.8259000307546
98.7873896227855
98.771963519201
98.8392460608833
98.8887782529223
98.835714542352
98.7591275166084
98.8016597456919
98.8347996555555
98.8456057025148
98.8447048053445
98.79914101578
98.7181370406313
98.7377187890079
98.7860196645071
98.8109734358512
98.8108393394996
98.7975684407885
98.8021933013294
98.7698426207317
98.7044806278916
98.7276953033748
98.7677561057895
98.7710781245669
98.7411013451881
98.7284448174481
98.7339955212327
98.7224127600209
98.6974094238137
98.7051283531509
98.6832673510226
98.6835175830342
98.6260671269443
98.5382806078425
98.5328944466775
98.5520861364056
98.4856682607956
98.3899854585013
98.5326872964645
98.8081905731616
98.8044750027587
98.7778246756617
98.6711386270656
98.6930442294887
98.7137630548389
98.6419868427855
98.7029459895989
98.801642111763
98.780477121321
98.7371834906519
98.7334402971622
98.7022031931324
98.6808726783641
98.7179801353025
98.805658700723
98.8949860577344
98.7778260095778
98.6364650975819
98.7382484263142
98.7539484315722
98.60888354785
98.6016893658337
98.4997945424595
98.4641795744946
98.5355301826905
98.6132604691588
98.6939954969343
98.7939865551875
98.7437812409547
98.7059765297301
98.7772626972206
98.789579833359
98.8253442325321
98.903614414368
98.8894331389931
98.8399644551385
98.8041432570995
98.8417254691812
98.8772480967113
98.9165407977224
98.9564829109916
98.9819666106057
98.9499070972732
98.8491560328958
98.8704980245932
98.9628720520508
99.0144290219481
99.0503413454696
99.0128062724079
99.0805582669796
99.1989393606386
99.2712555596061
99.2498524304939
99.190533835585
99.2565942038041
99.3535610153869
99.3910333479984
99.4388789346129
99.5461277290729
99.6974989399989
99.6265695333326
99.5210834255833
99.5666176142668
99.4757637465855
99.3694916619568
99.5503195314827
99.643237056758
99.6387324919434
99.5651104527328
99.5391438023218
99.6201803191793
99.7652739944048
99.7912700294436
99.8808049348563
99.8894476141115
99.8072811017095
99.6804688610674
99.5229289504751
99.5202320237908
99.7983924835091
100.037397105637
99.9075827795492
99.8047797753532
99.8980193957159
99.8963631189585
99.9584127405199
100.063388040805
100.231797963867
100.161858869559
100.011682405359
99.9972439170539
100.054838080211
100.121525663307
100.073169304374
100.001858922455
100.123514213766
100.259361846351
100.184074847752
100.058786490946
100.169061826458
100.12958107677
99.8876276274383
99.7894145462726
99.9250690233859
99.8023990563443
99.7639836616856
100.062338486168
100.450342493295
100.566403616907
100.762935128208
101.079352279025
101.14137350122
100.650373293428
100.497700700204
100.390699203879
100.139096622816
99.9799426586661
100.04293707775
99.869007000597
99.7958212815033
99.7774892060657
99.8873222338982
99.8469430360447
99.5444425923333
99.3431994881568
99.5787812547764
99.6781821368012
99.5730558827481
99.416280949969
99.4383556941508
99.4705205563122
99.38869144794
99.3207011439285
99.3668196845265
99.4093575476264
99.4922379077736
99.4404023513687
99.270484895363
99.2130337408986
99.3478759631386
99.4072632065017
99.3408026348037
99.3414998750812
99.4029554371663
99.3234204356382
99.4182654485509
99.6168704495476
99.6989740655012
99.5498471380235
99.2819340425047
99.1900235086022
99.3532019270429
99.3961833144806
99.3693446785442
99.3599356486319
99.4487291189021
99.5251996843003
99.4665731646463
99.4842787749981
99.6767474999474
99.5673572169244
99.5514017265255
99.6836810107163
99.7665495521481
99.7910341927002
99.8110395723461
99.7649189783979
99.8029287380609
99.8122097322498
99.8033806240457
99.8327252099685
100.145684752991
100.450621748088
100.677573395323
100.468426751828
100.210201225343
100.311486184392
100.525812245738
100.419512603907
100.238742327441
99.930032288275
99.7619947111744
99.8383233216239
99.8628154170197
99.9464905455036
100.203970928835
100.160292891083
100.243756590015
100.141428875178
99.9297759124045
99.99090658547
100.109275140087
100.027941442152
99.9214167659032
99.8149542962206
99.8846069037676
99.7918666722395
99.9661795995631
100.17136050556
99.9527012882765
99.6940846010514
99.9640521974905
100.141797751409
99.9961877747826
99.637199086672
99.6586134027016
100.014286476605
100.218714434444
100.303687613242
100.621056130148
100.506987250197
100.280675397313
100.036448347124
99.9314668879405
99.7669692540951
99.8451563331215
99.8939741621269
99.9838005420175
100.13608144627
100.039866561137
99.4229841721667
99.0588183301964
99.0666097407024
99.1058202668707
99.1318572864063
99.3353775163939
99.3207975274088
99.4417690981377
99.4581216392446
99.3136326716652
99.0899457036457
99.2035762080215
99.3584651208119
99.3720795412925
99.2959511919532
99.4019350980749
99.3326777250653
99.2487729169505
99.2020508106174
99.169264685246
99.1784956323153
99.2571540457708
99.253719865512
99.1833685389825
99.1565979410632
99.1059553198152
99.0159481390679
99.1080283875319
99.1725754173722
99.2633748678979
99.3574398160891
99.3270106390527
99.15069061884
99.2693887234438
99.3344666835922
99.2041341747314
99.0783209850445
99.1729179960257
99.2376186692419
99.2757637227454
99.2089425711604
99.2033215079139
99.2179185638329
99.2218402921032
99.2049591637902
99.1351937791755
98.9426351681949
98.9286180878283
99.0673320601395
99.1551631290586
99.1098771111481
99.1335134165469
99.1334276283965
99.1591159396932
99.0916981102558
99.1035589268148
99.0648768454246
99.11118476349
98.9910259623498
98.8757484636603
98.8473125157416
98.9773219019103
99.0071131010539
98.9357092811047
98.8535183348308
98.8565258019131
98.811185661503
98.8331058287139
98.7227324675475
98.6412567069659
98.6466953322717
98.6949772677841
98.8179579328537
98.8047485318271
98.7487837644366
98.7575966697466
98.7496575270815
98.6925801018413
98.6739301888665
98.7135241058099
98.7171813067507
98.6802382272326
98.6359936097172
98.6684476450431
98.6832524354166
98.6671281135864
98.5742697153366
98.4756609406026
98.428257677891
98.5555875755646
98.6192850514536
98.5492772123008
98.5617335897621
98.5385768420751
98.4696754534002
98.4223068538232
98.5103132182471
98.3657781272142
98.3009443110487
98.1988668765345
98.2692511546797
98.2642306271191
98.2531067368196
98.2225800172727
98.1835873369118
98.0515855724181
97.9512906871715
97.8685259699711
97.7077586940944
97.5271316712231
97.1395221907297
96.7842378836124
96.3080079771099
95.7727912810929
95.01244957433
94.1007069947076
93.0485360470126
91.2927481259615
89.9244172882866
88.5379283291291
86.4346856978337
84.7158695884857
83.0921094128524
81.6277685713823
80.1894837374722
78.764624404001
77.246541721816
76.0796226858019
75.0335310556954
74.1319596260633
73.3049768322839
72.833235045181
72.6295119154859
72.6036562623797
73.0661985163239
74.1633813436381
74.6604736656387
75.4983453318546
77.6511011899722
78.8547056410213
80.4060134119623
82.3047852503146
82.8566509061765
83.3898042269987
83.8634105591515
83.7378449187195
83.9933693990886
85.7498362263974
86.4833736688927
86.4488745162977
86.3377121792224
86.6617174567913
87.3302235194754
87.2605978171564
87.5397472019311
88.404999162952
88.617816639639
88.4647625231762
88.7686656266268
89.3302620957995
89.3778338087981
88.8893533280319
88.0668147389714
88.7906442467246
90.1210907299246
89.7792557478438
89.3697132925848
90.1281653218198
90.6082477051647
90.6033066272049
90.4280207765031
90.1108220257186
90.071918600939
90.9935479629872
91.4052388384438
91.2701499958446
91.2443967714176
91.3394404921191
91.4016866568026
91.528996176852
91.8230937417022
91.7264171142069
91.5234413212332
91.7056861907301
91.9669289432266
91.8804622499456
91.8575524921983
91.9911239600563
92.2170444581699
92.3413276658504
92.4709058236843
92.6198366310452
92.7416478843884
92.777862073535
92.802876347364
92.8718902893457
92.9286225856676
92.984102204088
93.0200678695029
92.9339528384627
92.6992491995204
92.3516327561042
91.7067933707622
91.0495448951963
90.9124203457657
91.6813337641631
92.02173878679
92.1146069010126
92.5081480715041
93.0226420557649
93.183228081327
93.2165387956973
92.9400432578385
92.4683346579648
93.0832970437433
93.6098416574018
93.4963263569992
93.5005703491912
93.4451063826819
93.5078398372233
93.4738491670668
93.2147835426035
93.0256943626703
92.8120468293427
93.339036059951
93.7209764032031
93.6569115639323
93.531372358571
93.8293929122605
93.7639725562499
93.6048927934436
93.6137985059699
93.6423434233119
93.5745899870776
93.687738520329
93.974449696694
93.9610931405987
94.2313308677792
94.3009441133726
94.0249124602385
93.5049439604613
92.6849062799735
92.2981550221033
92.4900168082737
92.819661142886
93.4107691022657
94.116257380027
94.8910154051153
95.43043314443
95.5210290043387
95.2598279405851
95.3692334621198
95.6987901645329
95.8262814294632
95.765678686144
95.6009107347173
95.4198946834719
95.0863642372901
94.634540874525
94.3418985443879
94.0970504004409
94.1030350411941
93.7315970976258
93.3155917741585
92.9643983990535
92.7806360843704
92.3125156926312
91.7194286329419
91.2238176582624
91.057402246291
90.7747370754364
90.402143634661
90.2780372593347
90.4441616830709
91.0478072335844
91.5202477668052
91.8864765601776
92.0932744570613
92.1712875604769
92.4271794391754
93.1886786967214
93.5657236532418
93.8376490574125
94.2122667314521
94.5034115720071
94.582047047788
94.5295911889815
94.4791400592261
94.1518505643064
93.8343798318346
93.3839266359185
92.2443075537948
90.3702308343443
88.0293224525495
86.239657205112
85.6254639489928
86.4268191600394
87.8959150170576
88.9828858501669
89.727677275073
90.437442674411
90.8482310527531
91.3360110572633
91.7051988326017
91.7286430669585
91.7512023307536
92.0292982958284
92.3515496836275
92.3780690295282
92.3055486693894
92.0556886596321
91.7295781746189
91.31838742402
91.0805802498973
91.0208269921582
90.995663600579
91.2781272724073
91.7706450866021
92.3001251180991
93.0362945128004
93.7481991352969
94.122133521558
94.3323359432535
94.4824940618751
94.5915023219584
94.6330208870576
94.610254173406
94.5353419955383
94.3592905013826
94.0611476605958
93.6648123509069
93.3055222393673
93.3215914557913
93.6058073343777
93.9877205285665
94.3392524911496
94.5787860802953
94.6263478762423
94.5113537312428
94.2856657743673
93.9782526596691
93.5995235095429
93.2142758470855
92.8969331852285
92.6170985987165
92.3343864170385
92.0728965823924
91.7503936130956
91.3252065227599
90.8764439384919
90.4321540368177
89.9746359639753
89.365695536401
88.5217876060904
87.5032339240685
86.4008964761226
85.3351456080538
84.3593665468391
83.4702852130529
82.6544894854605
81.8688686714742
81.0220689805805
80.1142816677937
79.1764354483899
78.262528564734
77.3781442211326
76.5214240437544
75.68088524863
74.8097855975976
73.9047738912077
72.9902092070088
72.0549711724253
71.1407076423954
70.3307814359814
69.7374440196436
69.3904803609506
69.2103437659044
69.0392808835124
68.7441471573691
68.2849497423132
67.6800619935406
66.9729827768943
66.1933078554259
65.3841549045001
64.6330300664292
63.9964002917941
63.5473036950392
63.3360329792079
63.4097099719024
63.7723871698635
64.417055568494
65.3333168991633
66.4824347063178
67.7444242264861
68.9847593544382
70.119364761145
71.2351109005036
72.4148639322444
73.6502814396896
74.8615287399923
76.0340582110953
77.137736190033
78.180250843361
79.1784291059158
80.1321004805181
81.0317581989473
81.8899122968587
82.7295860899077
83.539688237852
84.3257248481014
85.1073768443935
85.8702841997487
86.5964057263622
87.2588189418123
87.8202075079925
88.1919125353657
88.3198429477657
88.232777619591
87.9784972497301
87.6482780425564
87.4124263748173
87.4558159731907
87.8637580778832
88.562309649439
89.3655255339081
90.0505251125038
90.5436618325291
90.8905631317654
91.0881366538196
91.109237938878
91.0007017298561
90.8038238158534
90.5246652197415
90.2037700830312
89.7929673552694
89.2455617712109
88.584760382013
87.8134669234022
86.9650814463843
86.1107185178993
85.2697825668696
84.4119167690796
83.5176867829203
82.5503689087011
81.4777734029681
80.2553053103518
78.8754438377909
77.3668407726679
75.8416503679733
74.4454944685928
73.3328401660576
72.6253929483802
72.4520669721332
72.8128991019361
73.3881584158497
73.5642019212836
72.9589715970463
71.7018942155654
70.171365526581
68.6234770533227
67.2036420468592
65.9764840607306
64.9738447153275
64.1991415757978
63.6777000397821
63.4032926549674
63.2859278423636
63.237450396587
63.2334704247609
63.2901443382124
63.5036340701454
63.9569380853737
64.7281129470799
65.752095216598
66.9117958317552
68.1017086136427
69.2595001418929
70.3628550170425
71.4350676153588
72.4771209922297
73.4842798500076
74.4371130869505
75.3006084611677
76.0245557183842
76.5710665778329
76.9012311480626
77.0194698127899
76.958612963664
76.7539623258088
76.4966880852807
76.2903501727312
76.2189098458061
76.3545781021456
76.6392516675264
77.0283937232575
77.5270084625522
78.0622703551298
78.6165515401583
79.2534242857516
79.8965434907553
80.2515113169644
79.603444584057
77.1654880651607
73.1698533410537
69.1374825220879
66.8610594615211
67.1248666815864
69.0424028427286
71.2166305532947
73.108644123015
74.7191317961053
76.0357662704996
77.1463457710556
78.1138050646456
78.9461176911038
79.648837811267
80.2535722556311
80.7779536657533
81.1744567035517
81.4017432186019
81.5512756424602
81.6895271254275
81.8309595547097
81.9392318849295
81.9722578540765
81.8884975482615
81.6879428015312
81.4232795666621
81.1442898967224
80.9053933088188
80.7760262805605
80.7413029455805
80.7728032911845
80.8191454924797
80.7656170656905
80.5059116633955
80.156723676141
79.9723632841011
80.06243186076
80.2879207690537
80.5163941718805
80.7621004027652
81.103749964968
81.5802194740364
82.138010223071
82.6851717481897
83.1916660323861
83.6365680724021
84.0001247956776
84.2804314649886
84.5523882398891
84.8077402551315
85.046234338953
85.2852977065166
85.5387287315799
85.7987480771453
86.0969214897928
86.3884259334943
86.6452404093339
86.8712352087658
87.0302253291065
87.1244262115633
87.113977166826
86.9563178882245
86.5880734161237
86.0791969668933
85.5982460017142
85.2463748354393
85.0404832528748
84.9828565115644
84.9937399588016
85.0046838038353
85.0408725748566
85.0766412643739
85.1059816758862
85.0461666728901
84.7036700363782
83.9403872550539
82.6838862025362
80.9990312166249
79.0924971954795
77.3690721502918
76.4316295947019
76.5475542450875
77.5594519478562
78.9470490535569
80.2234759911143
81.2755444520761
82.0788666353834
82.657690461768
83.0126895881427
83.2238059445805
83.3752916793959
83.4434214518171
83.4132646021193
83.4006220313254
83.386183870149
83.3801661467521
83.5085491536945
83.6808326222917
83.8656578335525
84.0768997899101
84.2806976481471
84.5334963110822
84.8288711583547
85.0238509281488
85.1592195663859
85.3309607485399
85.4974713967781
85.6012953761107
85.6630417113216
85.7724271510195
85.8701253682565
85.8683385940278
85.8416091953458
85.8483845331036
85.8863630345808
85.9106200698937
85.9136790806529
86.0202665293233
86.262504714011
86.4543552252691
86.0122561246833
84.8487838812234
83.822162670964
83.6684996000521
84.3805735374073
85.3847219018036
86.390930709661
87.3007200745454
87.9732335134552
88.4674902506109
88.8566118294466
89.2156031784928
89.5702079004695
89.9003681512656
90.2453029828837
90.6778823798656
91.1854417746943
91.6545019883746
92.1297105558289
92.6072635900551
92.8391392805424
93.0119056411494
93.3176705637935
93.6120255278337
93.7801069257228
93.8020991149131
93.7201048763426
93.5254532788239
93.2179580531122
92.4264664288338
90.7687408809623
87.9880913427418
83.9834525558765
79.1597714316722
74.2897822065234
69.7449828742576
65.1524664435351
60.4821744686623
56.2756723908144
53.1359684517913
51.8786568230859
52.5118832092585
54.7646073742069
57.8161568073643
60.9574324551395
63.6853616299566
65.6600699948848
66.9683323400518
67.9197070329976
68.7190917895131
69.6603326611476
70.694174485465
71.8254386094956
73.163330824826
74.323456113013
75.075878590164
75.9008750793639
76.6574462819649
77.3527404248719
77.8446834529748
78.0722066108729
78.3036844635677
78.2863885548103
78.0771064793848
78.4473410768838
79.0285392001602
79.5116651305418
79.9383447787342
80.0624758247323
80.1905296098585
81.5712722965979
81.5767398360203
81.2126733003033
81.2534462106879
81.0279451403755
81.394762118107
81.7414672164277
81.9027385301622
82.460030658957
82.4601870757663
