1798
3999.43349933624
650.420452594757
1
128
4
99.1521195462677
99.1852142490715
99.1051448985313
99.1187274567569
99.1208894553351
99.1179444492277
99.0915185748592
99.0768433474863
99.0968251222087
99.1823933184622
99.0427684024248
98.8545409202272
98.9053953776364
99.0390850474413
99.0818051418541
99.1680186626522
99.1753956261444
99.1719136762443
99.0973435445688
99.0823584596328
98.9947569317109
98.9854018860797
99.0726724481958
99.1641899076354
99.1178899246456
99.01489722917
98.973914360916
99.0602091234099
98.9915433500506
98.9524084577387
99.0218808481865
99.11912291841
99.2100782683309
99.2058935993769
99.0573897554013
99.0349164390578
98.9772987306809
98.9775670923114
98.8847055409651
98.9822826375009
98.9930550320633
99.0217904999238
99.0004483918515
98.957221220985
99.0686290767719
99.0644203815273
99.0651232526834
99.1178405293078
99.1255281259595
98.9794787501896
98.812565426825
98.7428744978837
98.7013735447861
98.7998444799393
98.9535321859579
99.0730568390794
98.9153724468942
98.8933075486232
99.052637510537
98.8247799030188
98.8460975696284
98.8364392033617
98.6906679101155
98.8991638206723
99.067426140699
98.9143737901809
98.9690827679159
98.9183488878859
98.6725326678667
99.0040209819984
98.7795410057232
98.866212401874
98.7532647784054
98.9036560171319
98.9390932402512
98.9627690643377
98.7911743615533
98.6257129297717
98.7360083169105
98.8075869363362
99.0136777079726
99.1487597278464
99.1395068609189
98.9614847585925
98.7288057212904
98.6647836403698
98.8432723058728
99.0168820408956
98.8406754574895
98.857751182389
98.9990546797192
98.8787989719895
98.8893792655994
98.8543038739363
98.6237926430048
98.8293464864688
98.6085608031516
98.5124783098911
98.865940963196
98.9741559722766
99.247888974261
99.0686585006848
98.9128919753906
98.9664124509835
98.6382770139155
98.7960670952683
99.0014176976066
98.664608740303
98.811626279661
98.9703801437482
99.091200763232
99.0618274718074
98.948506800032
98.8560139664163
98.9177348449394
99.0317512274749
98.9238721652323
98.9327757797208
99.0305455438484
98.9972105078235
99.0045912436897
98.8276514538256
98.853316280916
98.9093429680787
98.8052058745017
98.9600647629608
98.794930077257
98.7501213189885
98.812982188514
98.9558076955925
98.9818876828616
98.8056755300204
98.5919609974305
98.6359311541464
98.9056272774121
98.5673597180045
98.7123961661269
98.6285120024825
99.0098725800649
98.8227875981575
98.5167011767726
98.3469581731236
98.4318316242507
98.8977767963875
98.8950063156662
98.9376397564709
98.9532392540907
98.8264897372733
98.9088799211601
98.9248223206281
99.0001752582084
99.0103793461442
98.8663438173704
98.6964237869922
98.6985588862315
98.8581382990513
99.0199761399312
98.9904539965084
98.7700451311015
98.7676856179061
98.9422253795473
99.0271680960742
99.0517536230912
98.898420456236
98.7814759290823
98.5880979542699
98.7086144321691
98.8569104097842
98.9634670246031
99.0390713876457
98.9524028466907
98.8875916473199
98.4924331061727
98.8415789579009
98.7491993655815
98.5306479255102
98.6782689028321
98.7322973879714
98.804692567592
98.8493491267407
98.7848419643399
98.8488213526394
98.8380991275647
98.8434594635142
98.9995512852484
98.9227826489189
98.6587316599487
98.3025478603113
98.485902073967
98.6533719564393
98.7709926828495
98.8834199475639
98.8045818304451
98.8180948368128
98.8011606913398
98.8538095160273
98.7588168569811
98.4738754922993
98.6000499194517
98.6192530340397
98.8113642941498
98.8428670415004
98.7164858548573
98.5355075526939
98.5901983991446
98.6035382987386
98.7345725554727
98.8573447041244
98.7206821161927
98.6780547835574
98.7315791596642
98.7339212237241
98.7556998354963
98.8634921370082
98.880747078263
98.790530669456
98.66013046368
98.6889337554455
98.7894184832793
98.7471160672469
98.6548552361997
98.657467714442
98.817517598472
98.8963312813776
98.9503268660961
98.9640597830808
98.9358821382928
99.0041137340615
99.1199476409884
99.0321570681328
98.8949502782076
98.7853041015204
98.7100506406009
98.8542323778217
98.8722097635628
98.8237348500043
98.8817348271907
98.9551979993436
98.9007934347718
98.9918436664282
99.0071149613998
98.9140391864415
98.7930587727424
98.6481659159479
98.6532494045794
98.743919291219
98.7633698869518
98.8589836603656
98.9533875346715
98.9953645037817
99.123910411285
99.0531215126579
98.9576286293733
98.8758177603936
98.8390938554403
99.0252998647081
99.0867817643406
99.0410267739641
99.0348575254453
99.1039041080781
99.0883507685651
98.9344195078367
98.9019973823614
99.0158064637086
99.1281382517546
99.0598477140543
98.9165300877995
99.0386056249874
99.2007928178296
99.150705716442
99.116494224939
99.1285799188503
99.1796880186563
99.1438950833875
99.0489703481339
99.1577235399821
99.2178214744862
99.1628635423703
99.1397164645937
99.1156777380528
99.1282991583805
99.1102516894374
99.0539823491056
99.0498568636256
99.112319921645
99.1828614764943
99.104515757613
99.0876359764324
99.1039775948095
98.9391717021198
98.925706862861
98.9235688352078
98.8895256244756
99.0001878971377
99.0621002637143
99.0376825388932
99.0037592987356
98.9158285536592
98.9480269198724
98.9679867595807
98.9569698543022
98.9391724502436
98.9023352859918
98.890534678953
98.95055204485
98.8981209844527
98.8696893311294
98.7598089611708
98.6781486231636
98.7475855347647
98.7920385140942
98.850197416658
98.917632977391
98.8619278181127
98.9305160016037
99.0916018802146
99.0670040953804
99.0137935233651
99.0319569987885
98.9707100656969
98.9292765251774
98.993178853436
99.0456429491051
99.0202415591298
98.9442566031983
98.9246667341493
99.1029267889215
99.1613323305402
99.0179744622
98.9777365607925
99.0315281538451
99.0509984781006
99.0775591231485
99.123223312097
99.0544898485663
99.0084287872854
98.9747138549366
98.9093964812479
98.8946206055324
98.9081728239931
98.9874182770852
99.0046076385949
99.0507059955849
99.1070646962467
99.0431901239423
98.9222935037284
98.877747708745
98.9774754207343
99.0532273654508
99.0113441929285
98.9934719592688
98.9252824886249
99.0032919299807
99.0760909311495
99.0263915542853
98.9259406508581
98.8531193789572
98.9261857781757
98.9734959084264
98.9195860969126
99.0108311147085
99.0514297499944
99.0102355649414
99.0000236103785
98.9206877910784
98.9400139113397
98.9382763665925
98.9300520068558
98.9603845733033
98.9380214170721
98.9308661829682
98.9475047310798
98.9150113131341
98.9294458170063
98.8666752010763
98.7468261482932
98.8303294517397
98.9353563151909
98.8800216360207
98.904279859827
99.0194157921776
99.0409808163789
98.9436220329765
98.851344585827
98.9048543920642
98.9328359112249
98.9414343167556
98.9670434133483
98.9465733665457
98.9042036961519
98.8600881494388
98.9348093522478
98.9398496872451
98.8339330797527
98.8119076349135
98.7929307868703
98.8831861347682
98.9610025241076
99.0159087786101
98.9960214978961
99.0113280706498
98.9399478846999
98.8450562473985
98.9298974609019
98.9515333016289
98.8790609626975
98.8440315084797
98.8032418624784
98.7824801201404
98.7978750544865
98.7930749448276
98.8672432171277
98.9046043796795
98.8755702883109
98.8789113487508
98.9177335308167
98.9368507530617
98.8904219260162
98.9222789232396
98.8920294633037
98.8392314346611
98.8349987362933
98.835055715684
98.8434004733626
98.8245212433441
98.7936060485663
98.8365678233682
98.905973737547
98.9270976452079
98.8453929026355
98.8117868634625
98.8910667909737
98.9592000883832
98.9451163750944
98.9310387921877
98.8765348917966
98.8552140495591
98.7731071271167
98.7253751646762
98.7032412307866
98.7470065315322
98.891846327023
98.8763609183091
98.7862910601626
98.7995003839494
98.8339138495531
98.8138704034352
98.8481956398222
98.8536991875655
98.7861976039959
98.7813981807938
98.8260955331249
98.8487365017857
98.8150085420779
98.7451719183837
98.7691026722613
98.7497698329701
98.768779338217
98.7934465352959
98.7359558293601
98.7356451604598
98.7825655131857
98.7782368233045
98.6825235980718
98.632385316048
98.6365712702827
98.6696203206031
98.7486264914588
98.7974537921306
98.7455572928536
98.6846131050673
98.6293324956396
98.5396453386524
98.4901697882425
98.5515747742888
98.6279557331089
98.6092136135893
98.5165731773954
98.5042744664342
98.4849926337686
98.5279669374454
98.5480296320993
98.5100911361587
98.469599180257
98.514146724724
98.5394147147766
98.5457007145583
98.5467019172795
98.5316580523748
98.5204144742108
98.533092486816
98.5291356896969
98.4322799701865
98.3125228940061
98.3294828225512
98.3880806597032
98.3759001767975
98.3909384781513
98.4272110250152
98.4222419103887
98.3669396729611
98.3276955188211
98.364055335102
98.3891794470233
98.4082851723802
98.4467542343086
98.4354162470673
98.3743522461768
98.3404175587653
98.365631098879
98.3887635299279
98.4042786155642
98.4652985066207
98.5223164449889
98.4821356145061
98.4849171070137
98.588325811504
98.5705104437355
98.483871120832
98.4898994922985
98.5057828281821
98.4733031436905
98.4909368281093
98.5344210427847
98.5389795683248
98.4972665666569
98.4979231573762
98.4140931281404
98.2903369390864
98.2120753960938
98.1680669707763
98.1339212294528
98.1787452090417
98.2365877527942
98.2535715700123
98.2146949148338
98.1344435821216
98.1154268441593
98.0991471751082
98.0442788163948
97.9735330882962
97.9407461005927
97.9493235047108
97.9594303764567
97.9659178392103
97.8831530442447
97.8253885769279
97.8106602473739
97.6933349251213
97.5487380193247
97.459973494501
97.4226805968654
97.376038798902
97.3391334692753
97.2950665185885
97.2564525567346
97.3117567230358
97.3696044589158
97.4319366772447
97.4954463512927
97.5219562241443
97.5704829145452
97.6085247229633
97.6673076818244
97.7628555735938
97.8512365777787
97.9574633223112
98.0565725261742
98.1292155312236
98.2260222610459
98.3352278816477
98.4228192286781
98.5135000539994
98.5802312685555
98.5877316697095
98.5903179073338
98.6241513677048
98.596009862163
98.5798063982509
98.5424166309943
98.4646552165145
98.4335298189857
98.3814296886358
98.272327207972
98.166948592411
98.0809284512284
98.0238387967586
97.9882966966773
97.9991488189415
98.0152503595723
98.0507310702696
98.0537379378034
98.0070343872562
98.0344811061977
98.0819045197853
98.0602791395735
98.0606104877607
98.0792377912186
98.0568183492431
98.0181831083219
98.0213651863528
98.0379186084635
98.0496031409297
98.1130052876125
98.1662832257196
98.1546178893838
98.1407640785783
98.165289995585
98.1948489260739
98.2025126546585
98.2566337185224
98.2950963175937
98.2758966614124
98.3381543753655
98.3961698431988
98.3745389189167
98.3501761333916
98.3198500305885
98.3191022921133
98.3263367575307
98.3003592527727
98.2923289860689
98.2946160053723
98.2527869990187
98.2506883199625
98.2800757348464
98.3028081987488
98.3347926670894
98.3071130700515
98.2579967682466
98.2861550545921
98.3419555218328
98.3286785119957
98.3092010841841
98.3282513257706
98.3164919418728
98.2731842412446
98.2313293617963
98.1915101835549
98.201231076816
98.2456705191018
98.2332070385515
98.1911281973006
98.2259396316365
98.2309598798749
98.2224535989029
98.2372716849741
98.2151865178089
98.222225899654
98.2950202510206
98.3087415547039
98.273705750588
98.2686700828297
98.2640989546302
98.2889956414687
98.3172909697794
98.3062423495347
98.2799586780645
98.299513148701
98.3396806133048
98.3101144240126
98.2565308852977
98.2573946668641
98.2910810556175
98.3084787202083
98.2825727070299
98.2493526841181
98.2376760845397
98.2787602977075
98.3077040238558
98.300852160365
98.3099509252178
98.303498822267
98.2867548580933
98.2814166740436
98.2440676026793
98.2354122592637
98.2566312612534
98.276957738357
98.2689323851276
98.2683612847977
98.2946951684498
98.3319557509118
98.3287097927183
98.3061965828564
98.285108730831
98.3204188886729
98.333306776154
98.312734194735
98.3254821880436
98.3438016225211
98.338419334015
98.3265069251422
98.2853945751538
98.2449049535898
98.2799962480224
98.3197256820256
98.3230184108937
98.350786330948
98.3590451330051
98.3412910951212
98.3342845618128
98.3272411827828
98.3364430681285
98.322657638253
98.3065326245216
98.3103427393408
98.3209996584486
98.3468978741073
98.3192428872659
98.2801378540656
98.3098082030405
98.3097031494645
98.3041077983282
98.3069192711256
98.2865311046856
98.2552784509302
98.2072634907912
98.1881725890673
98.2164779512816
98.2547157338592
98.2651906360634
98.2163417174664
98.1979250450848
98.2306073961958
98.2383385762058
98.2440277826646
98.236765907896
98.1807494826078
98.1902854749697
98.2317264667162
98.2418675102413
98.2277236634856
98.2376382364018
98.2558075715732
98.2779746358124
98.2798788761035
98.2459734080676
98.2491902627429
98.250217746547
98.2636128903631
98.2826038412403
98.230410514187
98.1950792621114
98.2624863338992
98.3222690563413
98.3290376351258
98.3232943456238
98.2574705125825
98.2503359200298
98.2932898642061
98.3122196305359
98.2842895663945
98.2732882547173
98.3049156780576
98.2802926387466
98.2661522724182
98.2888249319367
98.3384917457223
98.3730560934436
98.3711105165739
98.3983493259579
98.4063608882897
98.3597875353993
98.3162833763854
98.3403430057597
98.3953392089681
98.4384483578687
98.3900015830321
98.2650028963749
98.2683518682172
98.364604836965
98.4231622016497
98.4302969769694
98.4319977876055
98.4468686525945
98.4088064826864
98.3655382440419
98.440799404526
98.4574136308362
98.3319913343204
98.3097104008789
98.4005999328552
98.4175306889762
98.369570897888
98.3333528464562
98.3532557180992
98.4517121095232
98.4967249440207
98.4310144493427
98.3819903916645
98.3912398610272
98.3934137418303
98.385877920233
98.469016861397
98.5149498104971
98.414982804519
98.3178334789589
98.3458452383977
98.4728082346757
98.4886981466727
98.3771305145182
98.3400665319844
98.3440566144654
98.3566491370784
98.4603775400308
98.4557829438463
98.345460803407
98.4084901893584
98.5492411483837
98.4767004140515
98.3825436324938
98.4253935300613
98.4407281676394
98.4385924873725
98.4706372524201
98.4428463958968
98.4672982592376
98.4580657840313
98.3625655908136
98.3138882925124
98.350642408953
98.4474084523189
98.5327703808447
98.5103446487346
98.4604145431949
98.4548725781576
98.4586483527477
98.3858137890769
98.3777553658357
98.4921694132614
98.4916011120487
98.3995605592571
98.3299665915846
98.3095168790219
98.3576582069091
98.410155990815
98.4339328338459
98.4392351298313
98.4389082132924
98.4121442815198
98.390377080018
98.4018462254531
98.4324529549739
98.4920586483493
98.5046429110157
98.4028301264567
98.2957767073729
98.3157201112446
98.3524779073497
98.3361707645714
98.3917016923029
98.4264533000486
98.3448710928463
98.2871451513292
98.3144346434273
98.3053876592112
98.3212104328499
98.3783715208667
98.3612023636913
98.3150444116948
98.2933331864636
98.3132517051522
98.3536499126652
98.3104442307522
98.2775130189089
98.2494751982118
98.1994284012223
98.1592749084845
98.1345302623194
98.0873836893601
98.1162714206569
98.1997226026671
98.0418569389925
97.8528588599998
98.0733792553643
98.1775922471783
98.120174864391
98.05553613066
97.9916269268367
98.0238608060096
98.0556897323198
98.0809372219381
98.0960307776868
98.1174435458256
98.1595589223162
98.1051533384667
97.9988005077285
98.0152806040392
98.1066675385462
98.14848018249
98.1621631373931
98.0872129466929
97.9833660526118
98.037273635599
98.1101344694914
98.075994167509
98.0986719015221
97.9752614980637
97.8182809502553
97.8233244095006
97.8744033563598
98.028874633902
98.1173746375226
98.1245903606391
98.1039810293532
98.0568581072831
98.1277723125245
98.1976649186056
98.1702811835412
98.2298251210779
98.3167966522385
98.3374924254827
98.3229015805414
98.257392070719
98.2283661755024
98.1873564125491
98.1054952688729
98.087670148954
98.1965711007216
98.2966992291697
98.2492112278175
98.1988446453926
98.3090473447282
98.4598882678669
98.4814294062586
98.486361308909
98.5462019811441
98.5049886307342
98.428398952296
98.5663895799251
98.7174078154533
98.6356553339166
98.5074262883659
98.4549263811097
98.5197121030197
98.6415610599564
98.7672197712165
98.8407825363798
98.8821947977429
98.8726140467085
98.7817586972897
98.6576072358986
98.7824903312882
98.8451941073642
98.705265191228
98.7612434868187
98.8263640305581
98.7564805455423
98.6415778334038
98.7055438779222
98.9420585823978
98.9487361132172
98.9337646370451
99.0207496769839
99.1162759238188
99.0566218085242
98.9825147273602
99.1071547960602
99.1019582394991
99.026961302777
99.0263150243579
99.0483900976393
99.1081724618907
99.1362195066018
99.1192326823141
99.2041882887414
99.2586887874118
99.3065032323777
99.451037487548
99.4493841290852
99.2781985754898
99.0425872803613
98.9212365092351
99.0368254944048
99.3726750920034
99.4821462602812
99.5953943116109
99.7130443450108
99.6036539050117
99.507530631649
99.424093625803
99.2087300001309
99.1675614304423
99.5646634586022
99.6713585547284
99.4960178210644
99.9687389841225
100.185804973897
100.031736162508
99.6232914052519
99.2890319658148
99.3738396874274
99.5278315850544
99.4956758684235
99.3746529070835
99.2636894746675
99.2758846654947
99.243962733095
99.1159915453305
99.0733330446062
99.1077259224074
99.1142032213271
98.9782797336495
98.8790292179008
98.8911513100573
98.7739527905562
98.6913385123799
98.6534992739156
98.6004755369117
98.5900884020553
98.5505700960461
98.3836657021079
98.4205451944262
98.5547479063843
98.6591729438633
98.7604959373777
98.7523064346344
98.6100384384103
98.6116310989121
98.6935268802749
98.7097473232573
98.7491474304968
98.7592953033248
98.6323327548427
98.6325992961694
98.6704010863936
98.6248881592067
98.6152335405498
98.7135802508153
98.6985566109982
98.5762199302183
98.6041480646035
98.686474382852
98.6692583298075
98.8593341316178
99.0225512146212
98.9142914715446
98.77577094682
98.8944216589331
98.9714960757346
98.9285669755398
98.9710464125719
99.0845043314907
99.1918302917484
99.3077174398484
99.2642807575439
99.1977130334611
99.4501688228857
99.9532007342977
99.8575609133137
99.4805059792908
99.3981739628483
99.560745590818
99.6276842729272
99.5210394785238
99.2103455503645
99.0992686683884
99.1749073662463
99.3789609330823
99.7703104068523
99.8382717513787
99.5212094971786
99.2791284622705
99.1652395889016
99.4046351867554
99.5640482472158
99.5021092228665
99.3814805617382
99.3109925363082
99.3049326776368
99.3962045031734
99.2022335438005
99.4072573051898
99.7033435650056
99.4011979048972
99.153985661436
99.3310376379521
99.367305260161
99.1712009974221
99.1100598143483
99.1234561524224
99.006623221451
99.1552229926721
99.3554127871754
99.663635286366
99.6995260784315
99.5122414184638
99.4230165431419
99.4056432731276
99.2331191686581
99.2598203157635
99.0920946043431
98.8061958419402
98.7577804278384
99.062802017676
99.2802561729574
99.1983423176124
99.0782168974712
99.1106616004116
99.0868648723174
99.0158048024647
98.7879367978715
98.6030197474581
98.5873348906798
98.7464589966429
98.6762960388733
98.6826160795401
98.7660471676626
98.7962092159638
98.7291595833465
98.7965939260807
98.8407768154736
98.9187301349835
98.9373772160417
98.9591256718986
98.8095384388192
98.7501773164117
98.8370499297118
98.8950211584456
98.9369341570701
98.8776096259327
98.8370125255989
98.9583058856651
98.9776014598803
98.9167682706755
98.8766273698148
98.8160764550696
98.7597441370012
98.8138811567961
98.8572395170124
98.9178199680784
98.8531811854953
98.9184157009479
98.9178371230364
98.8548832533036
98.7639368454374
98.8181129892697
98.8992152723275
98.9563198276712
98.9893383166418
98.9774588677621
98.8070424896228
98.6312901576712
98.7242562024391
98.8903575733604
98.9056675499796
98.9786856180724
98.9244569744327
98.8485404585991
98.8751162447889
98.9688981067967
98.9815961063759
98.9992744937813
98.7618722414441
98.6528957532651
98.5401781172569
98.6440888547791
98.7426355162867
98.6991414147891
98.6571513348607
98.6556887743456
98.6117018161577
98.6572616146861
98.4805401588524
98.5381101075785
98.588761687707
98.5189507785936
98.5164904857908
98.5356225310442
98.5907945288223
98.6491680841976
98.6928439493134
98.6295360350034
98.5146935316258
98.5398502516613
98.6063925515683
98.6058494745661
98.5180441752585
98.4659390683844
98.5220543258646
98.6082623423397
98.5476101299914
98.4878268428211
98.3323599944445
98.4333420277678
98.5962116852199
98.6049616577027
98.5700235840902
98.6014896939564
98.600717321241
98.5871543990916
98.6514454765778
98.5525622136268
98.5234799012241
98.3234685086231
98.5000299249586
98.510505736127
98.5514777256797
98.5798698675847
98.4607142114775
98.3963918967644
98.4755183172009
98.3017032199431
98.2299105523338
98.1963602312336
97.7833163441218
97.3558953077375
96.8873570885371
96.3975462155058
95.5820729291539
94.6359949721458
93.5191610308139
92.0491991150448
91.163023601786
89.8425021101775
88.3850936654909
87.344349220261
86.1569869296914
85.1351938960393
84.0569045666361
82.8940630123046
81.7640872005087
80.7508584143543
79.4093749300571
78.5113925822416
77.8730558025519
77.6030345729484
77.4910180857484
77.56834480075
77.9349044813274
78.8034655445641
79.5151110624542
79.9002547780657
81.4875923937246
82.7279985374349
83.6560921378116
85.2501669620316
85.6276707216473
85.9316799564197
86.3153205121168
86.2062893034324
86.1331290417317
87.889767573143
88.5789290859645
88.6913269161219
88.6544812301688
88.9667717946415
89.8403452969813
89.7999638080136
90.0718688867517
91.1465755179193
91.4930989519139
91.3163293994528
91.7004918109826
92.4541937726486
92.6230441217413
92.2791922833639
91.3412534252039
92.1630451878143
93.9854964482905
93.5756433364349
92.9392102407035
93.822448268556
94.373771830954
94.3127204260801
94.1191115083179
93.7902441668832
93.5995808479268
94.6034947285041
95.0596582139622
94.8519837217295
94.6789728240067
94.7741413112605
94.817706652908
94.893541694802
95.2850236896994
95.1240557684139
94.6955542324471
94.9864481894948
95.3091682721874
95.1243167581213
95.1019797492616
95.2177324107596
95.4653999432823
95.5969598395789
95.713821258053
95.849499485487
96.0118753670715
96.0969004491694
96.1898529824062
96.2966653292416
96.3512328463095
96.3569106190738
96.3581971805408
96.2764079423441
96.1046965893058
95.8108883408535
95.3940856298142
94.8878409268123
94.6383172303024
95.4324377824388
95.7702608401447
95.6027692611048
95.8184952139071
96.3902557115352
96.4479753321775
96.4634586326358
96.1206639757718
95.1468438723601
96.016456462204
96.9007664577384
96.7715858014888
96.8431628435044
96.7048751576853
96.876818115382
96.9047810186478
96.5566614979287
96.3579701095235
96.1154675391322
96.654983954442
97.2365248497824
97.0759503699226
96.692677292636
97.0367131025518
97.0207290024137
96.7573986180247
96.6221266481791
96.7195601274885
96.5410869682893
96.6066364238414
96.9314939079129
96.8117200124319
97.076212082816
97.0448959542072
96.6277115828938
95.9593452245724
94.7045681740261
94.2121733861721
94.7207141508006
95.0693201455545
95.4670511548203
95.9500568033922
96.5726586092951
97.1681537778947
97.2876480326007
96.9319093679019
96.9351877136686
97.1520419732637
97.2111147644985
97.0533019600518
96.8050622224856
96.65311234991
96.2933699876899
95.7939294300691
95.382259956036
95.0890324721133
95.5185785314286
95.6815030342982
95.6785196896221
95.6718006164577
95.9039894802473
95.6679001450041
95.1492942577186
94.7426715305746
95.1806350752809
95.3253179392798
95.2240697442774
95.2100962381591
95.2193122362121
95.487912670918
95.6390664266159
95.6984978238782
95.7003157558957
95.6035620721138
95.5594899673858
96.1573430034565
96.4145737378334
96.5002313644273
96.7671427609934
97.0972752594474
97.1803313954091
97.1475846916533
97.1676009397275
96.7280678984135
96.1735591048741
95.4692326422097
94.1300129597928
92.3767173458807
90.660629655575
89.6782296365328
89.4914450095001
90.2243081623956
91.5061066396078
92.4532990670032
93.0650329541749
93.8390382565791
94.2864791009128
94.7857563962243
95.2397082664987
95.2997715270511
95.1953309492911
95.2816750810922
95.5018338402809
95.4831904249795
95.4959115564569
95.4604503745427
95.3990758323333
95.1593396801992
95.0310774485079
95.0628230067298
95.0374956068283
95.1806722169287
95.4619618367902
95.6285542063245
95.9150337126999
96.3609266964323
96.5950890797554
96.6361624653568
96.5653370409796
96.408856371477
96.0644155540544
95.4107626672798
94.3952306623313
92.9545148467005
91.2506687132234
89.652710454247
88.693370538253
88.967258648935
90.0915772283055
91.6291297317439
93.2006503361423
94.5210106797417
95.4186960376747
95.9359010390452
96.1943156238573
96.2575966892365
96.1641484886443
96.0132771034774
95.8543938190352
95.6800615896707
95.4567183141207
95.2358739878513
94.9851233006607
94.6714075914423
94.3764779603072
94.1061558954433
93.7944365128469
93.3757212936831
92.8554789269687
92.2351438757818
91.5542323767664
90.8822685111862
90.2354509727872
89.6083552152751
89.0074151154647
88.4416436528843
87.8660626286653
87.3086486891412
86.7304081988323
86.1439430294411
85.5784472160761
85.009000062399
84.4117763022485
83.784414459616
83.1144811683768
82.4246163124101
81.7474751511024
81.0904202029735
80.5046975079259
80.0414677363094
79.6662456023433
79.3286514949419
78.9932607920588
78.632871972126
78.2201127516876
77.7581177273141
77.2904345625468
76.8532837797198
76.475197562413
76.1951266577844
76.0365812699385
76.0155250122511
76.1412004489482
76.396158190788
76.751313470254
77.1967083687567
77.6676292403928
78.1100003579791
78.5616133644901
79.0414052566081
79.5369839369079
80.0929730924183
80.7353704247044
81.4099739234663
82.0696386645714
82.7140076323771
83.311640152853
83.9098491798782
84.5036941601598
85.1020267812224
85.7099156227308
86.2976522106835
86.8807583359308
87.4664166509375
88.0444478792272
88.6081425213299
89.1180357176326
89.566325545125
89.9638982890423
90.2990256651479
90.5373126666382
90.6721358728708
90.7234599565765
90.7258224909525
90.7397161093433
90.8551143116534
91.1262667262922
91.5406641271337
92.057777014255
92.5721121875609
92.9798813366958
93.2770407908672
93.4679458978008
93.5853566920671
93.646725409915
93.6379286096302
93.562206914565
93.3933970119164
93.1279222368648
92.8013189017939
92.3923620476547
91.900496957529
91.3256853139407
90.6167329551502
89.7674352900545
88.7895210131973
87.6728445170313
86.5067955755073
85.3828586431305
84.3726138500479
83.5006715376722
82.7482378398703
82.0751457533868
81.4837142330126
81.0024125047234
80.7013488747028
80.6123707374812
80.639870274005
80.6884377811749
80.6664975228627
80.4496888333319
79.9991644241654
79.4019558487495
78.7656717521946
78.1740024755463
77.6523129727824
77.1965117167329
76.8429365557938
76.6066643866495
76.498404921408
76.4721994967753
76.4787493424173
76.5278060358018
76.6401360729198
76.81746786605
77.0659897050888
77.4021473749306
77.8768828162532
78.4369982467515
79.0210037112563
79.6118422512053
80.2102108306878
80.7893555209586
81.3420564445131
81.8849075234793
82.4187765022989
82.9126479282919
83.3384495867415
83.6832198174217
83.9627377915262
84.159966007322
84.2639733129971
84.3037374127833
84.3245499246728
84.3507059847309
84.4046756183767
84.4941724517076
84.6549805389053
84.8947514067682
85.2124786116125
85.6138202445507
86.0510837280943
86.5208323575251
86.8393968619368
86.4931073932573
85.2391081261246
83.579356615017
81.9966684826656
80.4776789547365
79.2558692460982
78.8628610044503
79.4611621666637
80.5845363092485
81.7070971471454
82.636199165862
83.3887713755713
83.9849426568873
84.4677303704033
84.8800223444991
85.2364948227973
85.551482168595
85.8389143316316
86.0785725895674
86.2465963962858
86.3607438191139
86.4821095072111
86.613516052167
86.6982496785577
86.7185662832506
86.6657247771955
86.474560899071
86.1682371774985
85.7817788318151
85.4041268583753
85.1348467549497
85.0542400324945
85.1815960058217
85.4505312794428
85.7842545518591
86.1009558583928
86.3964010932972
86.6744863439491
86.9367379737991
87.1911775895425
87.4278946694911
87.6419749409294
87.8316941885464
88.0127676266659
88.1767711805615
88.3226843741368
88.4667183073656
88.5874967724622
88.6883297503616
88.8267756800869
88.9761040325197
89.0848808291324
89.177305060707
89.2934941673058
89.4041026901584
89.5231877760567
89.6606550735278
89.7960583479268
89.8837156158049
89.9271041654328
89.9770726564659
90.0510946136659
90.1066017418531
90.0565594887733
89.9329122485017
89.7866589363201
89.6136057115874
89.4685613850171
89.3845532538651
89.3291059256532
89.354167633011
89.4352973622871
89.5455637933957
89.654846822173
89.75011761274
89.7491683040364
89.6424682405163
89.4161389071465
88.9628486937065
88.3113870882299
87.5423119637415
86.5227675187386
84.9620839545073
83.4309993787839
83.1785473793807
84.1526445574535
85.234811473555
85.9845349765352
86.5562803053773
86.9476931324046
87.082245754303
87.109981139041
87.1532047580435
87.1503771825243
87.033322338077
86.8019561291005
86.5588154203904
86.4205701680455
86.4313726628545
86.5814277394143
86.8408036633453
87.076175056449
87.2652129862083
87.5210271343368
87.855299737079
88.217951623388
88.4817200467357
88.6156623607292
88.7834173764968
89.013711754057
89.2447435566525
89.4401880187641
89.5551505526729
89.6152309131362
89.6937698804269
89.763135189807
89.8333988803087
89.9306135496987
90.0207177874872
90.1086086956814
90.2232978846322
90.3539555496458
90.4445603795325
90.3162912538957
89.8429108560482
89.244714655672
88.9115204384705
89.0220025006494
89.3952189233381
89.8432424355792
90.2734300541672
90.629307240368
90.9663364895562
91.2366300704548
91.4018360096821
91.6536666628999
91.962981737942
92.223036739842
92.5006244184867
92.8154988527794
93.1911319783552
93.3913401629756
93.5547444232342
93.8052597371667
94.0491095162085
94.2649303032473
94.5109870712195
94.8159850652878
95.084245700833
95.3283773800394
95.5339308893946
95.5468358722401
95.2944725717307
94.6730211517697
93.3590501550561
91.3160173883725
88.9802104486181
86.5970745420195
84.0779141226101
81.5891228324623
79.1241514094588
76.6512904346607
74.4202264321238
72.9360526829193
72.5378931666827
73.0519065906355
73.7977087527095
74.7015209411167
75.6575664756589
76.4483423559614
77.0969804635488
77.7268708809891
78.5137855821534
79.1257094272604
79.4360488922791
80.0513131384595
80.7050749213422
81.2888666881106
81.9619188277986
82.6139043144498
83.0631604709875
83.4630882535843
83.5570569150503
83.7270880529008
84.1271046105041
84.3651527873775
84.3611182444016
84.5656204290306
84.9377546572927
85.441565639362
85.6806158411071
85.4722562676529
85.6207058096705
86.8005583767191
86.6912778891587
86.3387322077721
86.5178336671431
86.7693852187592
86.7843882761774
86.9931532298064
87.0968519558172
87.443784436247
87.7701237367216
