1798
3999.43349933624
650.420452594757
1
128
4
97.7712374331575
97.8625518728389
97.7771897766327
97.7263741522546
97.6736825020069
97.7000438496594
97.733860455846
97.7599110833395
97.7325365272957
97.8203802842155
97.7696126784892
97.6464016623653
97.6730884693673
97.7064227073853
97.6679848443766
97.6814679223052
97.7483395624573
97.836559100196
97.7539517641475
97.668040875687
97.5959687402206
97.6146291293111
97.729163568838
97.8689985106676
97.9063055329304
97.8142901511993
97.6062665756136
97.6128803425647
97.6173027241462
97.6157116691884
97.6329437575443
97.6859575603865
97.8311603937072
97.895074197519
97.7132021374186
97.6433496261676
97.6197410568981
97.7209820375595
97.5459012253284
97.6015371642545
97.6978194720936
97.7348259449772
97.5831835867824
97.424177455028
97.5535772415822
97.6427151146663
97.8026131702266
97.8390906163732
97.7735683785922
97.6891075388025
97.5062941752666
97.1723579401387
97.06642512585
97.3565999873657
97.6288267459415
97.8525144509575
97.6326899962569
97.5187832767444
97.6991647229186
97.4526004550429
97.4854170616147
97.3777559776727
97.1684772109539
97.428760223512
97.7675503972387
97.692655956467
97.7513427700316
97.5906745782554
97.2033283957261
97.5573278076793
97.384611554878
97.5641816227931
97.4269137624764
97.6401409115241
97.6720663911154
97.6935969581772
97.3435597700019
96.9982566594747
97.1937581129063
97.4864641797038
97.8158426786553
97.8927970590377
97.832662136179
97.6571040594522
97.3599908947745
97.277613827133
97.4723550081944
97.6482215370037
97.5698535494324
97.6176549683005
97.7233563175406
97.648500609998
97.690002958975
97.6211364481474
97.2508323670732
97.4000244092704
97.3319848563338
97.3680306391646
97.6613452946612
97.7034265075946
97.9935111400444
97.7123886741922
97.5511135224488
97.6979404315683
97.3571468018817
97.4455187907326
97.6048716394811
97.3363059137647
97.5408978219207
97.6285520502925
97.7139919568331
97.6604338098389
97.6201884239771
97.5312608026749
97.5664841507795
97.6809128372553
97.5730232069508
97.6540380055709
97.7289354435119
97.7357125227925
97.8275652152181
97.5510461915325
97.5293377918618
97.6599456539294
97.5289563075598
97.6791981325928
97.5776752908729
97.5928368195459
97.5340546866694
97.6956101456976
97.7177384657982
97.5771962140512
97.358227766646
97.1572363898672
97.4834408677023
97.3040522847922
97.5969204323187
97.3235804334346
97.7572037223887
97.5029308831618
97.0969771675292
96.9097541292876
96.9844219743751
97.5076415189587
97.6175976270489
97.6444514575631
97.5882395673625
97.378733672003
97.4799532844213
97.5100546342668
97.6257334283632
97.6122073799338
97.4876169240704
97.3048041063558
97.2850570113057
97.4659081162323
97.6372159986443
97.6951608652998
97.5077757508271
97.4799372519298
97.6343551355182
97.729908430395
97.8545382016289
97.6706054748927
97.5237184221548
97.2431937588177
97.357154015085
97.4790920296743
97.6209945163782
97.7368973177182
97.659633178377
97.6168688926479
97.018245108064
97.2928195248763
97.264859123522
97.1359716207301
97.2477752891749
97.2820176135298
97.4494659818308
97.5752370760865
97.5039678173693
97.4929135561934
97.3641318212493
97.3902089014286
97.5190471442876
97.4118121825157
97.1471012730377
96.6870710890915
96.9379738299185
97.135585991206
97.3126249223333
97.4563191215571
97.3424589907067
97.3278587527451
97.2865664105152
97.3138231422036
97.2440499669846
96.9659186683429
97.0252565223891
97.0070015901539
97.3299787110268
97.4093673073035
97.3023055199777
97.0828582026796
97.1715025729749
97.1881724051986
97.2727564249733
97.3330380593638
97.2424621437058
97.184530529035
97.2440160747068
97.4458961208648
97.4415221884887
97.3024847042745
97.4181267494609
97.4151269943628
97.2785644357513
97.2907891333764
97.3443580230635
97.3348697565559
97.4051311248001
97.3924059428534
97.4870566533891
97.5402092267685
97.563780894684
97.5672671099971
97.5696458549508
97.6481491023202
97.7298878152789
97.6986447752084
97.5593553931193
97.3662281527892
97.2356278006005
97.3455884335901
97.3787019201856
97.3658320250199
97.4080170589037
97.4635322295089
97.5090484446204
97.5542963884299
97.5546586244243
97.5078241351536
97.347415733414
97.234516639841
97.2929512921813
97.3862454382826
97.45305964656
97.5436271306976
97.57508461809
97.4802347601948
97.5941781841807
97.6357080675884
97.5862284809869
97.5475941772927
97.5064615977057
97.5824305549785
97.6385065777063
97.6110864076033
97.6717442231041
97.7988791691834
97.7990585916322
97.713513543721
97.7844236242418
97.7369535318951
97.6634986983413
97.6397104221187
97.7403504366273
97.8079812508337
97.9094465540994
97.890808448831
97.8008290303731
97.8030308034095
97.9326990226868
97.8703112994712
97.8199176329644
97.8968278758234
97.9002342334272
97.7898976489096
97.7475423731802
97.7212447135493
97.7263387927884
97.8547906985853
97.8827963881331
97.8233391872613
97.8190988906098
97.8484316193729
97.8037338702006
97.7510783857541
97.7623439013182
97.6666902833868
97.5966304250227
97.6556491068698
97.7130444145449
97.7563310768752
97.7495220368451
97.6639341508794
97.5437579231099
97.3785237991091
97.3911983320292
97.3686249755294
97.305194152107
97.2555787669817
97.182068847163
97.1470885313961
97.2475077818162
97.2969276959932
97.2779062035627
97.1443587014127
97.0803661126642
97.1462766329264
97.2090813217728
97.2223504956379
97.2869334349748
97.3966307654206
97.5605692359031
97.5498603117137
97.5329876243236
97.636357861198
97.5923565124867
97.4085803002022
97.4831228546228
97.7383479117415
97.8426143569532
97.6121442387966
97.524665177569
97.6293707508593
97.7824485301719
97.8825206339328
97.8274513562031
97.7508403535868
97.7605515682247
97.8273833170281
97.8629003566356
97.8249831426008
97.8023614413272
97.6045025756533
97.4970756335933
97.6285744963003
97.7524905428756
97.7791773830551
97.7636730231937
97.7077745469378
97.7374026178242
97.7477311006198
97.7650885020546
97.7134470056596
97.5681427497985
97.6169590440709
97.7213721153397
97.7277710600256
97.7091021269709
97.598313072021
97.7023115739738
97.7618623152226
97.674165119084
97.5884985856523
97.59855309256
97.7155482284982
97.6684252771166
97.6025953068329
97.7577027594279
97.8371914825113
97.7582344866229
97.7573327474219
97.7112266903644
97.6707692712472
97.6347280902472
97.5628627279219
97.5340332813111
97.5450327264562
97.6432177992054
97.6263170622999
97.5490577238612
97.6491113636527
97.6431010247379
97.4652939338174
97.5092165586438
97.6510714975127
97.6579454135095
97.7190354799479
97.829956610284
97.7751082517424
97.6670096836537
97.5752938721265
97.6415858081529
97.6878836640696
97.7144960123626
97.7583296758655
97.762129440182
97.6815994618666
97.594811439921
97.6337801646034
97.6570189175068
97.595556748162
97.6343149878214
97.6240048347376
97.6283810736783
97.6472638321308
97.7276021452774
97.755736261168
97.6895842868575
97.5895724022947
97.5811406864905
97.685403116904
97.7149945902459
97.5942416896889
97.5353966183723
97.5288687693961
97.5402664324306
97.5467053135815
97.5107899046343
97.5621565275427
97.6142238299637
97.5931544719341
97.6004295279619
97.6691314454516
97.6633913626188
97.5560347999064
97.5353268158608
97.5881927208734
97.6203133572204
97.5736640532329
97.5819476745736
97.5532784087291
97.5094867783207
97.5392593768099
97.5534101953362
97.5610877253118
97.5526630284197
97.4940272512242
97.5550439166992
97.6209178213835
97.5853723379287
97.5909952990326
97.6606345540087
97.6039050302844
97.5770067457645
97.5894073664206
97.5379407958174
97.5022102881999
97.5047651514024
97.5182948089093
97.5482244497912
97.5416639231285
97.5911726231362
97.5771536540606
97.5311025899884
97.5869170454677
97.6183310528093
97.5065519522662
97.467235603195
97.4378384310563
97.3744408346914
97.4014534389257
97.4335440429453
97.4476454197256
97.434396682243
97.4381920334511
97.4752548189541
97.4185118044798
97.3718044268192
97.3701457352883
97.3800527616455
97.3331206547472
97.2927736965033
97.2673857954834
97.2824702610871
97.2742693390386
97.2858331881875
97.3184024669679
97.2675380650993
97.1794325857785
97.1944429900575
97.203553572777
97.1685844817609
97.1383605734821
97.1305851661482
97.090777120183
97.0537348327854
96.9863808447393
96.9575396509567
96.9283184583795
96.9179087800353
96.9129937103639
96.9476504509417
96.9893550921811
97.0604520205464
97.0060577129229
96.8966944617687
96.8673019912859
96.8922947758774
96.8680138499233
96.7830534169098
96.7468142122267
96.8086732484293
96.8044229396943
96.7366608361353
96.7472886419989
96.7682887623804
96.7503049954442
96.7210021532273
96.6925091590605
96.7058666485419
96.7218790005743
96.736821994079
96.7416955396724
96.6957268430166
96.6412158154419
96.6228459447694
96.6462067264441
96.7488657563201
96.8822461605424
96.9655773902053
97.0102365967243
97.0330999866103
97.0709020858479
97.1505188509672
97.1325115358785
97.0679827681286
97.0666810580971
97.0555580728903
96.9766680332479
96.9585641255712
96.9800894875155
96.9322894296485
96.8317646919024
96.7515561156845
96.6204426361037
96.4756252471082
96.3794180225338
96.3635851049205
96.3083887836713
96.2647425886456
96.2773861344459
96.2898985117369
96.2234419330211
96.110703486032
96.0847102874215
96.1239750186608
96.0865941436591
95.9912103352336
95.8655497293426
95.7665984283577
95.704009143014
95.6473397529276
95.5460816619311
95.4239690953403
95.2668566737715
95.0258103114012
94.7707482588022
94.608688981001
94.478567171391
94.4045507643931
94.339380861574
94.2379649081858
94.2522542263777
94.3673711510529
94.4256494455458
94.5135753766806
94.6507933505645
94.7576062978257
94.9159997336532
95.066561518471
95.215616696615
95.4184505109987
95.5739592420696
95.7233271050634
95.911837777231
96.099128952046
96.2474052435554
96.3765771231726
96.5023034246887
96.6050964718851
96.6893428810535
96.7965659811276
96.8634036410328
96.8684097937903
96.842990464835
96.8197105094984
96.7268451544433
96.6390088506415
96.5511512358744
96.4100063005334
96.2095647395183
96.0480039793963
95.9603145163898
95.8929214871848
95.8034365961339
95.8368891136762
95.9814004671568
96.0502790328741
96.0352198287176
96.025576808157
96.1022028891511
96.1565737295586
96.12343728852
96.1282449928221
96.1393841920458
96.1322248784791
96.1094119878298
96.1404171969427
96.1995925662062
96.1805469129723
96.2185053943204
96.3241312029524
96.34550600181
96.3617838775265
96.3854475113217
96.389566574842
96.4637194620506
96.5281294063685
96.5590332472599
96.5995814619628
96.6503068275968
96.6942292949776
96.6777943123379
96.6803377468394
96.7131090043645
96.7467268732861
96.7645307052735
96.7369344063729
96.719075072839
96.7647190969901
96.7779994887746
96.7818318907042
96.7894250228346
96.8256939867629
96.8787623703563
96.8500386218892
96.8065555489051
96.8474053070891
96.8970164382932
96.8742080114427
96.844830608379
96.8393447552401
96.8237363213526
96.8118660231212
96.7735942767063
96.7400014673302
96.7636649801327
96.7460579127246
96.7060208280733
96.7125516045311
96.7618460536072
96.7721124059718
96.8107851132676
96.8605705014299
96.8360612987352
96.809257715811
96.8723091271294
96.924405947815
96.9157436366028
96.8954927769117
96.8921989843362
96.9114518629757
96.9132370583817
96.9088303544347
96.9190107008223
96.9569077226062
96.9613415358956
96.9350585717919
96.9348988936964
96.9329555001219
96.923019336274
96.9502970391999
96.9539773397399
96.9099988164469
96.8717308568141
96.8768820527854
96.9008191638116
96.9232788139072
96.9237847862169
96.9182482140863
96.938499051379
96.9727798947951
96.9657770788715
96.9381692448911
96.9060477367405
96.9119129507096
96.9309232366829
96.964306004323
96.9756397345577
96.9662760861071
96.9796109111397
96.9857358651767
96.9621727674256
96.9821044328063
97.0234145348267
97.0558418559581
97.0410697381427
97.0332562915197
97.0451351877459
97.0484665451763
97.0435166312941
97.0380970544036
97.0391138888433
97.0728618308252
97.1017464393799
97.0968605899748
97.1040047927437
97.1092104579885
97.0791260325644
97.0622970063209
97.0951609235101
97.1087141530232
97.0989414540717
97.0893363885757
97.0877842421476
97.095208563324
97.0842069402411
97.0542076806935
97.0262161166927
97.0141288996175
97.0505739141148
97.0523288743152
97.0096263383246
97.0091469296409
97.0172495330668
97.0039304029902
96.9964541634617
97.0144363853607
97.0139204951286
96.9866266509274
96.9746585897953
96.9915340556094
96.9995443779925
97.0035831271751
97.0208216350079
96.9979832215201
96.9951211732915
97.0196089955628
97.0150960677646
97.0070535116877
96.9994547464718
96.9812318785155
96.9833545758914
96.9845188935106
97.0001204826155
97.0545622100714
97.0921513164623
97.1089106159717
97.1118716935465
97.0810905716248
97.1062298289905
97.1800445683015
97.1761409668067
97.1120075125028
97.0929347789995
97.1429597599161
97.1720995502136
97.1333460545154
97.1247642985414
97.181508340095
97.2046679376549
97.2154291841244
97.2166693685122
97.1853706005986
97.152387118524
97.2079301531767
97.2359884141841
97.2045589649359
97.1954367026014
97.1883822177489
97.19694850658
97.2465439126971
97.2902386223887
97.2305806064274
97.2023932769173
97.2206985649898
97.1926147805389
97.2428852708754
97.2962075199531
97.2675634954317
97.2396211455494
97.2731693165965
97.2963971023304
97.2674580225615
97.2347197487391
97.2786483590328
97.3047989772668
97.2401179351107
97.2171619775046
97.2995018308042
97.344899836006
97.3007971218432
97.2574611742437
97.2524149706302
97.3020509012631
97.3129274966678
97.2392320118873
97.2604938705091
97.2923786484855
97.2771887044053
97.3045898717198
97.3353605578424
97.3373796107322
97.3022810131991
97.2303924629807
97.2581656415256
97.3684866302218
97.379237621555
97.3148344303056
97.3136566884613
97.2888093470846
97.2277872552852
97.3116021467006
97.3711085483194
97.340438982526
97.3696550312563
97.4377208157229
97.3994855080324
97.3662931987277
97.4326004644243
97.445757487592
97.427288950459
97.4090905002985
97.3575351681497
97.3629429603627
97.3761671387261
97.367561791563
97.3468366277427
97.348756100517
97.3849162350793
97.4393312019241
97.4362855352487
97.4035740372487
97.4264483204625
97.4806080970874
97.4544379208057
97.4388495730046
97.4863381085737
97.4409555926169
97.3760893011715
97.3810157766037
97.4274827854077
97.4544061027257
97.4663679476988
97.4374231205736
97.3722056293568
97.3675171820014
97.3506714307183
97.383357766889
97.4499147742549
97.4517356802627
97.4354429942061
97.3682744110936
97.2677662360258
97.2366532680751
97.3237788048191
97.3692427979364
97.3268019835415
97.3622697358612
97.3733766189877
97.2639154253474
97.1739098445762
97.1660751687913
97.1530617423079
97.1819578109995
97.2455780315613
97.2104672769087
97.1713181654444
97.1866412644409
97.206138818743
97.2457673559481
97.1982829815142
97.1358282598743
97.1174333360972
97.1238765822606
97.0812632227121
97.0296799122466
97.0372394467559
97.1446743424861
97.1921541044228
96.9296545861684
96.7070653434821
96.9809131244775
97.0557813640784
96.9920224325195
97.0193472450037
97.049318439508
96.9959464891734
96.9117768105098
96.9889695764219
97.0498144810255
97.0385380065208
97.0655778660586
97.0031469312095
96.83656192254
96.8601449254036
97.0057480627889
97.0521302599696
97.0860320575313
96.9800822278268
96.8130465298431
96.9233461264119
97.0781746094329
97.0232916533108
97.0605783337361
96.9553908170524
96.7625513866469
96.7690850188512
96.8517372468135
96.9536691542301
97.0130515571615
97.0321876009121
97.0089836813625
97.0304739955781
97.1541846868399
97.2830592506999
97.271230512786
97.2589337455875
97.3136601095538
97.2979107397855
97.2348809958551
97.1760931989194
97.207254172338
97.2762829717137
97.2572665920015
97.2236614797126
97.2465994863457
97.2922129268371
97.3317488830141
97.3691089280194
97.3867279117315
97.5383661679441
97.626108989511
97.5671576643402
97.685349528821
97.7927335768985
97.7478551661229
97.7201389003964
97.7786573853124
97.8288913705414
97.8047452415082
97.7583113140421
97.7906023186372
97.8868113812609
98.0236664375004
98.0979874749431
98.077355394728
98.0883152048416
98.1274049954697
97.9535129059096
98.0024520550813
98.2842678595796
98.2673697115042
98.0408668762039
97.9597065004644
98.128217787544
98.2224690378075
98.2943524775303
98.5032888751703
98.5825597954481
98.5636063254823
98.4872985863175
98.531147083335
98.5900001052633
98.5851276272494
98.6092024551781
98.511530542184
98.4440306816822
98.4532038730746
98.5866525232231
98.8353478643632
98.8258301019955
98.7163529268997
98.88092829194
98.9402508367539
98.7967701901028
98.8851734940506
98.9643155508905
98.8877099252375
98.7961931129556
98.8722433870455
99.0809010557797
99.0811888324063
98.9207302850233
99.1757145000946
99.3807853607745
99.3435017978133
99.3839307668367
99.3778080130698
99.2200705117144
99.1418121435446
99.351564375292
99.2262796301844
99.1906870575244
100.392432924334
100.499401702042
99.5291467947617
99.0728432428615
98.7277401072017
98.6563014369883
98.8996016776889
98.8292128129631
98.7450887287043
98.8437215727062
98.966864503008
98.9563236538043
98.7199823268553
98.4897944608395
98.5357422468877
98.5182450371745
98.3278854162205
98.2247409053437
98.1957260177596
98.1058175361157
98.0399299145095
97.895605923762
97.7718975638373
97.8023024732647
97.8513059614783
97.7758421901976
97.8293728218839
97.8663386899527
97.8931749584691
97.9249956162904
97.9619054764076
97.9825429809762
98.0004824460679
98.0379610624735
98.1090074197884
98.0973094985184
97.9909690422016
97.9231697298318
98.0184953066856
98.1013699005406
98.070413630225
97.9665916539478
97.9384306221974
97.9372563774988
98.0673068631905
98.1885296677249
98.1853767454087
98.1586393382658
98.2777148714276
98.3154485661343
98.3088372618079
98.4124336073167
98.5140193048924
98.4615053726937
98.4902204597214
98.5882843689205
98.7062378189394
98.7498048280952
98.9843262242956
99.1478631002205
99.1529269462283
99.3499031530391
99.6239764777572
99.5116492807502
99.3228633956514
99.2396569909159
99.3099048149959
99.0525569245893
98.8043590313405
98.9057995947557
99.1986479273601
99.2197894686623
99.3757393590697
99.7270218526509
99.5500977649748
99.2784921261759
99.278361832391
99.1056523915148
99.1029144364283
99.1310823125556
99.0212837902092
98.8143426568309
99.0322680329883
99.2892071306212
99.2595950021355
99.0066266486891
99.031374496053
99.0659483184364
99.0053427935963
99.0126013925398
99.1207215255879
99.2437527514161
99.142794526984
98.9125734769414
98.8583893935737
98.7539802999518
98.8141570643484
98.9746641066204
99.411393869506
99.4350774433477
99.3052510521994
99.1227079450666
98.8259847765318
98.6037703323946
98.6149554899773
98.4811065799282
98.3700140245136
98.1444002792165
98.1271996860772
98.3077868473528
98.3605705745531
98.2010888726753
98.1859329603128
98.2261569014053
98.1996433351141
97.9556371131846
97.7792305775561
97.7792264307422
98.0315512301799
98.0393542070397
97.9925831584787
97.9372651775319
98.0976192141547
98.2248267148035
98.3579023028612
98.349168813793
98.4058254461671
98.278069445476
98.1974706938255
98.1282874178956
98.1596927465539
98.3275100286082
98.4117373294068
98.3746441702407
98.2337335402117
98.2296561408781
98.4547346560553
98.5124791863998
98.4760292780808
98.4428538805725
98.3938477476358
98.3617717838031
98.3898201155502
98.3511276021931
98.419901891307
98.3274598440987
98.3846590093564
98.4720232642645
98.4897956479486
98.3786921055349
98.393029171964
98.4668768276333
98.5475225173551
98.5669258760018
98.5588021640377
98.3502318030531
98.0861840794683
98.1327825348541
98.3236290577074
98.3149672407952
98.3653633101225
98.3774433866089
98.3802206931591
98.3809684957734
98.3959266545592
98.3297553740704
98.405346324951
98.1720590154643
98.1049552845946
97.9024260747528
97.8635552038858
97.9901341169822
97.9891198625643
97.8860227016823
97.8986355718
97.8906284357716
97.8773159607512
97.5020919837595
97.5660436403798
97.6173048230343
97.5151135278669
97.5789667183089
97.6165212627232
97.6619168086032
97.6904140651984
97.6981475596077
97.6424130305056
97.5366439110427
97.5629614258501
97.6291091449279
97.6492507653428
97.5772702559092
97.5251995132212
97.5506071471987
97.6359880899813
97.5982715895352
97.5853008747285
97.3588152553986
97.3958969389249
97.6052601922218
97.6464370039971
97.565759267576
97.607619960817
97.5860059295615
97.5736874587042
97.6940063216546
97.5707138580539
97.5217357019609
97.1190674640951
97.2912446471955
97.2924270392175
97.2854036859691
97.3401038160006
97.202207095431
97.0041507844601
97.0307766928503
96.7307047530145
96.50496403869
96.3609232672359
95.6847245357467
94.8443905958357
93.7964720822913
92.6346284060478
90.9509184794515
89.1230361262948
86.9742941996887
84.185173765744
82.4776985050657
80.1853444006973
77.2819895741819
75.1930345517964
72.990316536797
70.99906831246
69.0816283217384
66.9819312626815
64.9433097697154
63.3199880088284
61.2377542578906
59.2811047621324
57.8669993611963
57.2819785485387
57.2428217001745
57.6315927222244
58.5223254002795
60.0627603476319
61.3792122353245
62.6701121945165
65.5026848198653
67.5015267837997
69.511746074342
72.0808244190679
72.9710336846664
73.8418925708531
74.7239173059629
74.8044829209609
75.0592384817788
77.7706336100227
78.9212656164127
79.2978661429166
79.4565626185525
80.2104774539198
81.6976392396283
81.8545265031111
82.4391586389104
84.2040471793152
84.8879061643637
84.7875175922023
85.5461161143659
86.8150486196423
87.2139256181116
86.8810180426105
85.639789427319
86.8695312161811
89.7046900252294
89.3063352849485
88.3333602100635
89.5475659095096
90.4831773769245
90.430483142491
90.1539449514402
89.7405360984331
89.5215950748935
91.0445666701642
91.7761720861014
91.5024576938245
91.2486954629546
91.4493608262115
91.5594430509362
91.6493700739739
92.2291432624759
92.0805743514195
91.376810571101
91.5773605028636
92.0771427030212
91.8813801022068
91.8502512993925
92.1045043051055
92.5528586528065
92.7941655849623
93.0762546548159
93.4182069985595
93.6825151109061
93.7761220746309
93.9255305720097
94.1385098227828
94.2376064762607
94.1945193451179
94.1492353595404
93.9641858807126
93.5663249598199
92.9208462351922
92.1646693838586
91.4378870393524
91.1424139065598
92.3770186861069
93.0691510656608
92.9637636995132
93.3038230065377
94.2395385482541
94.4368390891746
94.5444725304177
94.1969705624039
92.8680694530185
93.961308265371
95.2672268761691
95.1157839168914
95.2206673803695
95.0857717268617
95.3543750144944
95.4322025504539
95.0295189696781
94.8631208945658
94.5789227876246
95.0109399017516
95.7867626339382
95.7080474889729
95.0997292734301
95.4900532387452
95.5592673884136
95.2272450602765
95.0069705634885
95.1681121438285
94.892099247807
94.8713818058355
95.3924587186271
95.2765663271555
95.6354340764539
95.57195312808
94.8550773921063
93.7488659353837
91.4563524628975
89.8558677173011
90.5884178048955
91.5476446294987
92.6048107314865
93.6526001173184
94.6992014166486
95.6053262092323
95.8755725148555
95.4280341199927
95.310935476475
95.4094146737739
95.3625047403831
95.0638060345929
94.5651023538373
94.2019974931928
93.5985138785479
92.7921496331817
92.0435173142882
91.3313978419664
91.8301299380335
92.2167926630323
92.3936730127436
92.4463419598491
92.7281144056385
92.4181485192684
91.7390144417795
91.0417002579764
91.4526677441051
91.6583184305773
91.5893082540989
91.6356513597302
91.7107451638997
92.1379121011915
92.3886051972715
92.4968770938005
92.5806707269898
92.5780462764736
92.5653873117911
93.3989531110433
93.9264631500985
94.2275745712494
94.648835705841
95.1667040044468
95.3292856102219
95.1679328349876
95.1311441511663
94.4397644522747
93.128978158195
91.4319087535503
88.7545211053335
85.3573280472629
82.159221838034
80.4988042327353
80.4717809090105
82.112964352393
84.5861189737829
86.4358241417471
87.7264544698196
89.1493686986436
90.008536273738
90.8054290617768
91.4663882979116
91.5824469182985
91.4489818693306
91.5272084186319
91.8232314481445
91.8426228430442
91.8878296450472
91.8329853552577
91.7323418409234
91.3731036829609
91.1012651302236
91.1145692662916
91.1103782397487
91.3759016597314
91.910107482135
92.3407248902577
92.873545156023
93.507230047819
93.8192695783634
93.8246195114369
93.6436816282731
93.2573764532804
92.4762348075929
91.0937913221589
88.9478649845862
85.9880496980284
82.7131567611784
79.8947404447159
78.3637486829349
79.0220530413456
81.3405787166513
84.429246299045
87.4935663742238
89.9996718012054
91.6575959518038
92.5688898040049
92.9776311400069
93.0606656026309
92.8969155734636
92.5973947699896
92.2754594685781
91.9309407240669
91.4926070055201
91.0081062924871
90.4956472286597
89.9244070427031
89.3704823720124
88.8211668927509
88.2082506869978
87.4193800219291
86.4286499699759
85.2813253410177
84.0487391497193
82.8144711019158
81.6229446547239
80.4683897609858
79.3442498316107
78.2402441649718
77.1245718774459
76.0283900594729
74.9140138846402
73.8111936802461
72.7318606666447
71.6687991902278
70.5858643848182
69.4504956143611
68.2593018633392
67.0425270334592
65.8500043739413
64.7282314040272
63.721652685771
62.9041372342322
62.2443198786829
61.6673878995234
61.0937223627878
60.459145821945
59.7629644796963
59.0455629274749
58.3273439332136
57.6510694326887
57.0754921170295
56.6738758027667
56.4585479546426
56.4597828537053
56.7227790529473
57.2367539013272
57.9158196802286
58.7128945949213
59.5704833929444
60.419663029586
61.2457170418406
62.0917739860423
63.0305574837291
64.1271741105844
65.3491926900697
66.6297496656393
67.884342520671
69.1062952380766
70.2875058578225
71.4285672646435
72.556034002268
73.6965199063937
74.8321649894096
75.9379227687492
77.0371120552958
78.1555103634246
79.2328590961559
80.2505601398857
81.1919953510523
82.0078963150785
82.6999264353857
83.2720649790657
83.6651583571776
83.8512054064559
83.8744621864765
83.8296156495088
83.8091089974344
83.9701116163918
84.4589766192096
85.2689709969267
86.2259146373718
87.1139919431759
87.7922896344001
88.2492018387773
88.5079276168943
88.6194078009837
88.6382211380749
88.5306747172346
88.250925236924
87.8068782800194
87.2403039915409
86.5598353474614
85.7447675092873
84.7648269908637
83.5834184613676
82.1660318990795
80.4946682931523
78.5444319588124
76.3697303004308
74.169178224251
72.1173227925204
70.3297153538514
68.8374382595056
67.5876325136362
66.518401193695
65.6042738807303
64.8543960483887
64.3896792118083
64.2730768706253
64.3650352307447
64.4508505485584
64.3846949276571
64.0036044606161
63.2618466803415
62.2870144936208
61.2450044613482
60.2491225959257
59.3912831806388
58.6979829491945
58.1887216798599
57.8648923095159
57.7214732087201
57.7148612374701
57.7910909052554
57.9399449071389
58.1892297259623
58.5413912996791
59.0530354145413
59.7716931429627
60.6743589734846
61.7150930941996
62.8355230992727
63.9737053055609
65.102912581181
66.1987800825195
67.254681424459
68.2582527865875
69.2227044767351
70.1148846341348
70.8892191750538
71.5194507964705
72.0118195674416
72.3342515061374
72.5134326622171
72.6174018208855
72.6668574290113
72.6939725172739
72.78912698117
72.9967994119736
73.329504318087
73.8173971113492
74.4429547013073
75.1643685984632
75.9678516328441
76.7748204444539
77.1235460849028
76.0477625688972
73.3016704100353
70.0748845218311
67.2638172110308
64.6916669714195
62.7397767853397
62.3751423883717
63.807390717603
66.0887331953241
68.2525484770973
70.0102037499473
71.4417808000535
72.5890540420089
73.5053388583745
74.2611308378235
74.9320382358682
75.53024969496
76.0545244745008
76.4694674164774
76.7432861025946
76.9074601514993
77.0830346263556
77.3081290146099
77.4935388695113
77.5055154226936
77.3026832898111
76.8704153409628
76.1833692360382
75.3336043361623
74.5794502939435
74.1745273269692
74.1592796372709
74.4581738086826
74.9975397716702
75.6497122372193
76.2714474447109
76.8802513023346
77.4736192948592
78.0264179172768
78.5498975721437
79.003630613045
79.4075489822123
79.7795820077055
80.1449123967153
80.4710901874302
80.7379601059041
80.9814905584445
81.2113343839222
81.4293181241481
81.6637983698709
81.9082787363392
82.1098930680392
82.3037191149422
82.5363941364979
82.7372827960701
82.9650806673062
83.2182388721241
83.4324382765779
83.5960366633347
83.7196504135986
83.8106484932604
83.8647365492859
83.8306747799623
83.7102786533698
83.5122499799305
83.2211249427082
82.8882701925639
82.5658181987446
82.3463631883637
82.3070984704535
82.397012989695
82.5495011856465
82.728539429341
82.8910389400502
82.9993010669167
82.9381839910324
82.6884364490925
82.1337952985407
81.1591468011283
79.8462877147793
78.2611711293962
76.2108446209197
73.2371259255309
70.4235341020145
70.1976845300073
72.2891095581241
74.4775700801672
75.9897611721069
77.0019902668603
77.6426293080421
77.9522472608906
78.0446410181685
78.0176038628028
77.910483613418
77.6199981351301
77.1180466561975
76.6084814218829
76.3825236701577
76.5713222168523
77.0128477436648
77.5211046567819
78.056606656074
78.6272765771374
79.1873670153194
79.7452408566455
80.3715822010813
80.9239111010998
81.3412117535089
81.7171248156122
82.0867410674439
82.4146798469462
82.6758543741062
82.8729395095552
83.0691368926758
83.26761064593
83.4243209545317
83.5484095664659
83.6643641104605
83.8295759031971
83.9795671450069
84.1215571116622
84.3301052322711
84.4751748553609
84.1709365996732
83.114563308621
81.8748429463688
81.4296074890305
81.9255002044293
82.6942160336582
83.4736554146153
84.2646602682858
84.9148623918745
85.4972592311638
86.0526938074442
86.4615346018209
86.8660551241656
87.3331224794153
87.7896237300515
88.2288483743192
88.7043083120482
89.2146336636758
89.6595392838018
90.0440470522376
90.3952766527959
90.8248939571119
91.2778638182398
91.6575707003191
92.0696152984277
92.4663325223188
92.6517438064071
92.6426282957537
92.518235124524
92.0085997103037
90.6784097822433
88.1403080096679
84.4401763119579
80.0283738219226
75.6223741617781
71.4701332301663
67.359192999967
63.1004348471738
58.9498490677985
55.5052888338237
53.4530630065155
52.9008041695922
53.6308989041747
54.8432105643219
56.1970181366059
57.5746719030764
58.9760573200165
60.2651570752357
61.426208077292
62.6214565554096
63.6938320055631
64.5427164129012
65.7114290579173
67.163340488698
68.6246889899134
69.9266590752014
70.9371443973482
71.7536057760051
72.5972819255879
73.1875900607925
73.6407768010086
74.0008074300373
74.2413870570039
74.4874639788974
74.9952982004913
75.6151650871612
76.2202070650177
76.787273024858
76.9473566121263
76.9140616515875
78.2772248072578
78.5746057275591
78.4461622858683
78.88239286533
79.2194981150439
79.5906843122093
79.9280442973649
79.9364929910915
80.1201141440568
80.7015630674417
