1798
3999.43349933624
650.420452594757
1
128
4
98.8839597687097
98.8547798588829
98.8081651644958
98.8320437238973
98.8367419774609
98.8405752577069
98.8418629686133
98.8413021999302
98.8097319565867
98.8647860540213
98.808975863909
98.6861588152987
98.6831409906643
98.7408782798964
98.7511121968284
98.8096755038532
98.8587009652071
98.9478693051842
98.8158608767629
98.7592941212335
98.7795136713949
98.8064585858109
98.8385941290467
98.9030600182773
98.8532296723089
98.7938848620109
98.7237109481209
98.7766442053504
98.6802075055433
98.6791512415517
98.7356376452879
98.7344150451149
98.8451889260509
98.9606252669056
98.7614541518009
98.650206937763
98.6657670614543
98.7579465169226
98.5446924356149
98.6660722555947
98.6669825151088
98.6859522596027
98.5828559147763
98.4529893728625
98.6088410887384
98.6980258552623
98.8055237353679
98.8555938370631
98.8794376488402
98.7604280443927
98.5115544673356
98.1821796714663
98.1135289502098
98.4382957264521
98.6497288587395
98.6882475011468
98.44178053683
98.5705699228042
98.8088225825083
98.4686580049048
98.5692699347592
98.5595177827692
98.2572637592993
98.5262732341818
98.8079081231804
98.5733241462762
98.7035990211159
98.6091116668581
98.3151388257635
98.794429993976
98.4180937318703
98.5866782636115
98.6002355800695
98.7662081034648
98.6719193040625
98.6694742091567
98.3323037539585
98.2214551146098
98.3587381794085
98.3613778234709
98.6431442662566
98.7825804176581
98.7402837257661
98.6468690360793
98.3482109136263
98.2288217959916
98.4786091664673
98.7274355493115
98.528851469288
98.5707056625232
98.6551801409067
98.5887785390687
98.7483754526335
98.607767207976
98.2414386936825
98.5502228227976
98.3309962642657
98.3214837299892
98.6201302205802
98.6426342077157
98.957217964759
98.6161501696376
98.565554121958
98.7523771591167
98.263556358135
98.4204239538425
98.5525316798927
98.2514210318111
98.5841777125625
98.6784755565689
98.6546057195773
98.6404484063695
98.6196508956626
98.5303230254685
98.5896997885219
98.6829823114863
98.5310466122245
98.6704887403831
98.761423841152
98.7138961458562
98.7414468526345
98.4475003507059
98.4579834739782
98.599106721603
98.491723007988
98.6610521115062
98.4737256632822
98.4512650952867
98.4231505682257
98.5727100937164
98.5807058004397
98.4087887310665
98.2364377117876
98.32973648797
98.4817445134599
97.9249833554084
98.4497842926453
98.3213908943356
98.6157609638361
98.294123359527
98.0129785427977
97.9568925596216
97.9856932589351
98.4367602628646
98.5446207969535
98.6559463458046
98.5489225447714
98.3608712294721
98.502164909228
98.4161797519375
98.5768232150107
98.6389426911079
98.4570542336231
98.2176025743352
98.2870911808902
98.5859152646589
98.7650615535277
98.6553154203537
98.3513300179357
98.4357537367857
98.6285470566579
98.6697867377207
98.7561380093304
98.5816032118996
98.4256595200651
98.0353342162637
98.1574707582768
98.4432566330982
98.6068421538877
98.6881921455597
98.618694341366
98.5419172585316
97.9759846628585
98.4648686013048
98.2926607463318
98.0261982543748
98.2888463688253
98.4516786660785
98.4775512016343
98.4089544956461
98.4105299659596
98.4688388471902
98.306993980577
98.3915442968702
98.5802492235328
98.3707389487764
98.0933468231217
97.7420701227089
98.0111332961117
98.1846110878399
98.2288272636051
98.3925864134144
98.4640369146785
98.5485288676334
98.4512358381888
98.4936468144948
98.3013211566447
97.8642540007432
97.99913933215
98.0919305780716
98.4213428772712
98.4821981648426
98.3931407289779
98.2302196402533
98.2006594712374
98.0921404366271
98.2787096174869
98.2808583067437
98.1585211223654
98.1621581789491
98.2933184019839
98.4982605239201
98.4794340263996
98.3245121033833
98.4021821147061
98.4009406669886
98.3186106094383
98.4288984316291
98.4542153787971
98.2836290037881
98.3592100891434
98.398006319203
98.4479574245232
98.5591374461747
98.6336695386156
98.623523967297
98.6150855636168
98.6626803515002
98.7248968117539
98.7181272569587
98.608273947408
98.4951982500515
98.3300494185405
98.3489030281823
98.4391664292185
98.4259268576778
98.4977952645446
98.596648446828
98.5402371694819
98.6704262615499
98.6898899809157
98.5389314696566
98.3952363398885
98.242609267753
98.2335585052128
98.4174601798933
98.5274405466028
98.5795315788418
98.7323436792551
98.6919331002683
98.7108172843462
98.7486703516511
98.7526284720366
98.5983843174432
98.5010586507675
98.68273489358
98.7683485839921
98.6595096320095
98.7923113771956
98.9697798200808
98.8821277852593
98.6825610495439
98.7271918816592
98.8560735977766
98.8608845476908
98.6217626811893
98.4983858237747
98.7707394980918
98.9730608870992
98.8840015306054
98.9086000277198
98.890306179816
98.8962821685806
98.8393153496072
98.8392315978918
98.9529942508178
98.8956639611624
98.7980286877043
98.90593244804
98.9777330131814
98.8883509163169
98.9069347606816
98.9508665991024
98.8009236849658
98.7424285294701
98.8705141781702
98.8787398864716
98.773864521939
98.7707973867924
98.6966513971616
98.6882909641746
98.6961418787657
98.6892511494354
98.6943013537536
98.6560686531881
98.5200863676707
98.512632856062
98.5040195426358
98.6320052171782
98.6430811979805
98.4731697778004
98.4207688027702
98.4604933090516
98.4239942761132
98.3862962505604
98.398780583953
98.4197187391069
98.2998779577531
98.2764938746449
98.3302419674134
98.3310614008293
98.3716056737183
98.4826439237394
98.507067527125
98.6760901036835
98.8050830753819
98.7691460696263
98.6608989902638
98.6059227832836
98.5542213423916
98.6467899468055
98.7810344077795
98.8495679941082
98.8026688479288
98.6846690349334
98.7684314905235
98.9803566414094
99.0069521537596
98.9315074019326
98.8070131838847
98.7583942348329
98.7785129931667
98.8535456238635
98.8634469470771
98.7893974103461
98.7235425526805
98.6526806872082
98.6971477780975
98.8583987870065
98.8637293435435
98.8639976243993
98.8595760245163
98.8908434427539
98.9170610676854
98.8881409759868
98.7601256176594
98.6026923588537
98.7227119438618
98.8810218258875
98.7764276046349
98.6914795045782
98.6446800849791
98.721477106352
98.7751781038438
98.8011548059439
98.7964931758517
98.6929143236111
98.6959481380781
98.7264439411203
98.7610950971621
98.8101267401341
98.8107947679994
98.779570321945
98.797658450267
98.8010578691726
98.7745950807599
98.746951518207
98.7608356818578
98.712102340856
98.6447000733953
98.6894820812461
98.646313181293
98.6684186372171
98.7671392219747
98.7736747003204
98.6692724049517
98.6145136106625
98.6678653152575
98.7053679776867
98.6928629487512
98.7253695122396
98.713611231226
98.6826102229788
98.641681419236
98.7082747856931
98.7529073148022
98.7512524546937
98.7985466126922
98.7994821707453
98.702988898433
98.6664784978077
98.7020836538912
98.6746373414558
98.6435325205842
98.7199650348682
98.6912774813611
98.6936450399848
98.7103359435461
98.6856781436532
98.6333283541218
98.6450468677785
98.6277842024935
98.6094383161123
98.6564959120363
98.7067806161756
98.6707282644197
98.616972587124
98.5379239402196
98.5513522617161
98.6025229400319
98.6207996167673
98.7229969650008
98.7476668683413
98.6540847737518
98.6285236184142
98.685011604084
98.6885970609191
98.6140539662025
98.6577271924797
98.6666779081313
98.6143969698611
98.5675014135745
98.6023158260119
98.6161616085497
98.6018011915414
98.5902169660728
98.5310615582131
98.5345487736531
98.6395366679323
98.5998751554589
98.5922535140295
98.6147964995877
98.6433336917025
98.6526157354941
98.6572681433048
98.5939519559633
98.4954709599809
98.5023544545204
98.506802762287
98.5102824321058
98.5209626154122
98.5279689632548
98.5257508122833
98.4803873498195
98.5039794511882
98.5678814567063
98.5908035196539
98.5571140670583
98.4906713745414
98.3861692214494
98.388858680866
98.4731508772069
98.4909513011009
98.414575735555
98.3980585002956
98.4154608002553
98.3621155277601
98.3816050190315
98.4367035585629
98.3993691965694
98.4038102293549
98.4137403879802
98.3985521520543
98.3005740476612
98.2513581575914
98.2308698116289
98.2267677172953
98.2242272182267
98.2869751060882
98.3464163519648
98.3314237139959
98.279482172496
98.1867198188468
98.0645200708811
98.0720728303783
98.1130559516843
98.1457541462626
98.1200425125367
98.0557531598614
97.9828397884383
98.0162368537511
97.9979425253219
98.0065633006593
98.0348771110823
98.0242807850163
98.0205257119928
98.0850773117674
98.0694614550653
97.9864397094394
97.9641228505006
97.9643673463543
97.9364823300258
97.8420123733553
97.7327455729551
97.7562855462307
97.8182327825005
97.8243928212907
97.8170691607382
97.8244073797223
97.8276616631393
97.8180193771215
97.7766539575854
97.7945078589156
97.8193375251746
97.8247235597249
97.8130854168032
97.7901495705439
97.7494922388899
97.7301095402658
97.7509882968345
97.8090467804358
97.8970933692097
97.9957732164441
98.0534946212124
98.0106038957481
97.9590710543216
98.0472004101147
98.090356947133
98.0582813239941
98.046004445808
98.024260882491
97.9960482971048
97.9610414019707
97.9454626348209
97.919530501311
97.8597239626858
97.8441886403279
97.7196424126926
97.5538926078653
97.4792980076517
97.4471391527
97.4270194790914
97.4145165199452
97.3905820687459
97.4013867011516
97.3794007550183
97.2934224289145
97.2596079591411
97.2668677329681
97.2489392500266
97.1747465429568
97.0863371834434
97.0451043079058
96.9592829336332
96.8646441454597
96.7845111084997
96.7153448084208
96.6373778011528
96.475424307724
96.2717480557923
96.0700756141253
95.9378226380625
95.8943117491769
95.8377417634241
95.8297586842125
95.8727952061254
95.8975968852687
95.8964267535977
95.9903264157809
96.1060384407016
96.169107779083
96.2476506195161
96.3772562623684
96.5425545611205
96.6542735014509
96.747385391653
96.89526376311
97.0327472334915
97.1878803493947
97.3585837095427
97.4880054830838
97.5971556033442
97.7245675527215
97.8224657010577
97.8868920350543
97.9413875690369
97.9860836107325
97.9229329656437
97.8987915773308
97.8918811263965
97.7945293098499
97.6892234830472
97.6124441060704
97.4971286045891
97.3297773789404
97.1776578610743
97.0904684095855
97.0427147750208
97.1148508299298
97.2123845734402
97.1978700649517
97.1324719656865
97.1544893649625
97.2256722848183
97.2356596998153
97.1890722998188
97.2099790626509
97.2155475127076
97.1835657345945
97.2002333266012
97.2565141616665
97.2744675455826
97.2478960393853
97.2666669305654
97.3217566131141
97.3344866486597
97.3662181198366
97.3728486896359
97.3722978842478
97.4013623800707
97.4283598049367
97.4715469333959
97.5272966472849
97.6165498597589
97.7254556931858
97.7726943954424
97.7395762997462
97.6884790328465
97.7026007676908
97.7548980457742
97.7492203609434
97.7024692335753
97.7025614151049
97.7032332202526
97.7085332751364
97.6970779257419
97.720909276352
97.7676918665411
97.7149969104215
97.6642416968309
97.7128934125212
97.7499957245812
97.6997689422802
97.6518832676109
97.6699473694441
97.6873693030485
97.6385458119932
97.5732749436374
97.5645012480464
97.5763344361756
97.5667845299529
97.5452942627072
97.5502524025647
97.6007292952865
97.6291809905748
97.6489570872963
97.6678507457867
97.650656475294
97.615195043746
97.6659887036272
97.719889938152
97.6884016445948
97.6532825151339
97.6697159821452
97.7021274330558
97.6979401098288
97.6903827967577
97.7035429671912
97.737430568359
97.7327925348058
97.728431524001
97.7170985956439
97.6984093586152
97.6956082986985
97.7254199899924
97.7038690842769
97.6474268965165
97.6328141857763
97.653940064255
97.6698930228289
97.6891109722146
97.7165506485836
97.7092240241188
97.6970304578899
97.7014605353974
97.6820726255535
97.6634838138692
97.6364842263241
97.6584215354503
97.7066675103105
97.7032836412821
97.6909691528469
97.6998207910841
97.7155974881579
97.7151900109983
97.7166029462732
97.7612902736033
97.7508988136062
97.745945360496
97.7605433834688
97.7366612351615
97.7433204555732
97.7655428633523
97.752515374152
97.7361820972017
97.733834393517
97.7447233588885
97.7621589119847
97.7656508648476
97.7892456912098
97.8106287966881
97.765354164415
97.7261304346166
97.7407284367806
97.7527355186448
97.7745628989952
97.8164931770382
97.8186331113214
97.7764269719055
97.7360474986991
97.7221564677751
97.7335810620958
97.7201467631159
97.711305122476
97.7145297904723
97.7214603137412
97.7162121122963
97.7085091454811
97.7041612324972
97.7043449906034
97.6934288709405
97.6876872398711
97.6757888488838
97.6504374195338
97.6548710704412
97.6618269078972
97.6687216368876
97.6942288675582
97.6799932791331
97.685326050037
97.7154238120333
97.7183768209862
97.7269028707019
97.7399756845026
97.7201783602694
97.6875844201474
97.6706821070612
97.6651339361611
97.713389916364
97.7349007000246
97.754359468968
97.7969752836833
97.7773236193311
97.7364917513369
97.7888188608618
97.8662204131478
97.8161623330085
97.7475115769272
97.7482204393312
97.7743216074702
97.771613745155
97.8228289505434
97.8780728036624
97.8561176857433
97.8585950823308
97.838619653318
97.7841323684053
97.7720539322333
97.8160990329333
97.8334233916865
97.838204311882
97.8376912277408
97.83828962288
97.8738821357984
97.8810015458125
97.9210973523656
97.9094332417066
97.8417151865638
97.8390664621068
97.7952341779022
97.7810978943692
97.8090175250409
97.8260300552698
97.8929114688155
97.9022442438965
97.8451163974084
97.8513035549123
97.8816937852751
97.9081407939558
97.8918057315083
97.8093784935065
97.7765689086562
97.8494667822998
97.9257844550074
97.9256102746182
97.8718361471476
97.849640713107
97.8814782830022
97.8926821849669
97.8701051472963
97.8919944491038
97.8434581173416
97.7797254663905
97.8036881090734
97.8820847168784
97.8604751110885
97.7745462888945
97.7839202289927
97.8467093606246
97.955649710619
97.9526862526005
97.8737805869762
97.8459814942276
97.7913546501636
97.7427784726846
97.8001867674162
97.8536275052713
97.8203870569515
97.8529943524508
97.9369253795349
97.8694089109426
97.9049270417442
97.996548690968
97.9349251107029
97.916329099783
97.9575423700177
97.9409568358514
97.9310499924349
97.9552399568693
97.9108560805352
97.7861200307637
97.789016226869
97.8877152668858
97.9610804527195
97.9812640959015
97.9441554067818
97.8930845814088
97.8926363714895
97.8784923564279
97.8688663414951
97.9102834914753
97.941677531762
97.951230218659
97.9577788449348
97.9809837624252
97.9973022700643
97.992128020882
97.9734986235932
97.9197242196172
97.8920121286573
97.8704859619243
97.9064609483554
97.9671660173585
97.9119026180929
97.8903796785364
97.9140628579694
97.8594568281819
97.8137566813213
97.8376982735826
97.8348981606802
97.7822388130111
97.7621059632547
97.790318403904
97.7800191095098
97.754461864005
97.7705306574126
97.721690854424
97.7234071729415
97.772928596293
97.7444565254953
97.7056610433666
97.6953451627782
97.7282883832507
97.804213594899
97.7528594111905
97.6615767483364
97.6402614980952
97.6316076608125
97.5860483448775
97.5387659176723
97.4790565904691
97.5504559254038
97.6520420043359
97.4229762818661
97.1823416485153
97.4554971119906
97.4847343307169
97.3953289421221
97.4205160260933
97.4152419876401
97.4494086878878
97.4401964588774
97.4690370371778
97.5260980654189
97.5445779381207
97.5535105113091
97.4438454254557
97.2943799605392
97.3181148177197
97.4129051946498
97.4853932022711
97.5731923134803
97.522634870372
97.3788555569499
97.4895067744439
97.6449104496338
97.5061587183968
97.4586287685713
97.3670337536158
97.2271622735788
97.2663587154428
97.3606392753016
97.4538128817837
97.4922276343858
97.5686839929932
97.6012439262759
97.5703049078419
97.6162634652398
97.6945070426942
97.6936081693846
97.7516016658458
97.8200626012607
97.8201554535658
97.8044911373608
97.7473674429645
97.7608580932085
97.7517576954026
97.6921405399678
97.6932166715532
97.7596070719764
97.8103337643561
97.7942006035625
97.8410917585147
97.9503928106426
98.0163624173712
98.011138293478
98.0653758503672
98.1947526087515
98.157471979429
98.0323285435418
98.0723731040531
98.2059064676075
98.2778387455862
98.2675979475429
98.17027420648
98.1216338957753
98.2254786766393
98.3515855987444
98.4067967725087
98.5239474199228
98.5368074365575
98.3407260780825
98.2026635175883
98.3955279941645
98.5428001536877
98.5155465194864
98.5176296863417
98.5290971665625
98.5987934766046
98.477171471357
98.3783500733611
98.5506785364719
98.6524461265349
98.8004462946028
98.8849167061832
98.8701873867611
98.8174242596563
98.7988442200696
98.879106690684
98.7929688344743
98.7982246718181
98.9097849633926
98.7854590549814
98.8728973314402
98.9771467185601
98.8133153907009
98.855146348156
99.064513002081
99.105888670996
99.0500117806726
98.973938636908
98.8841936293647
98.9151145777831
98.9829453366882
98.9278384482686
99.0722425807733
99.2335545345788
99.4142544912814
99.5707357359304
99.6389753010492
99.5972441570686
99.5354355520135
99.5648730094688
99.4217938145746
99.3451927982228
99.4923369363784
99.7420722612095
100.26543402089
100.149545960962
99.7704422396213
99.3013375976608
98.7756279019217
98.8749505482894
99.3600500272394
99.3503005234144
99.0416710041613
98.8392264498325
98.8672421362
99.0078191426279
99.0510626100795
99.0125111592404
99.015263963037
98.9539985595408
98.6852179854731
98.4226276629944
98.346962610938
98.3581631916297
98.4805325221377
98.4098928166893
98.1690646406783
98.1555028160249
98.2478279911124
98.2053283043484
98.2931331865723
98.2804972936864
98.2030297960648
98.2546531872568
98.4040274903854
98.399940728014
98.3161919149225
98.3259808832824
98.33587040499
98.290049956685
98.3168388260948
98.298223654284
98.2986480426284
98.3413166034514
98.412845854847
98.3931282059024
98.4448305641018
98.4088458948993
98.3598511958518
98.4031983051667
98.3860739974884
98.4071362660745
98.5949525168274
98.6750419119752
98.6744445630679
98.734091283828
98.8072949541014
98.8017276305893
98.9274109861024
98.9944556806137
99.0079542227101
99.0813002639915
99.3192293144222
99.5478653423108
99.5705971298709
99.5268262148206
99.7194712258584
99.5437586482807
99.2889294607803
99.2718385449347
99.5641289260841
99.9047578875516
99.8532832362514
99.4090260742808
99.1345180224469
99.1615374876053
99.4402009482773
99.6952285982081
99.5665150154211
99.4156087206104
99.6257577683341
99.54719474689
99.4005043722631
99.4614578101996
99.5366437508293
99.3126911112725
99.1679048898781
99.2165834356565
99.4059139164288
99.4195592111816
99.4205428278858
99.2486626195977
99.0719760701122
99.1547137449437
99.2517043463975
99.1381015266284
99.2088446857967
99.2239736697064
99.1737877398654
99.1703605157278
99.1944681204503
99.196181801269
99.5406865633607
99.6251875063472
99.5095740991608
99.3161191205952
99.0587088397921
98.75980299586
99.0177206329006
99.1162084015687
98.7953359796335
98.6008297088364
98.6901470741044
98.6538411920518
98.7687258998927
98.8204985862205
98.776739669717
98.6800201058983
98.4503762156612
98.252318624955
98.3798655470475
98.4082461975757
98.4422836812629
98.3498460223575
98.4003279267386
98.4455990840515
98.5268480658191
98.5487875202963
98.7310203397402
98.7884860704366
98.782928337211
98.6500288369782
98.554763986014
98.4625780417494
98.598935282371
98.7117177223551
98.6630408077237
98.6319886246391
98.598459476131
98.6116853848057
98.7448646447361
98.7941013501539
98.7665771665877
98.6911475790505
98.6824205749167
98.6753126851512
98.6832494140562
98.6915019824682
98.7040375286737
98.6008156114111
98.6815497747031
98.6850303191559
98.7383202757196
98.7523618927044
98.7814826011311
98.7579214099822
98.7948446835315
98.8313726727953
98.8011067084255
98.5945596242192
98.4273098224629
98.5441200253897
98.7032754851384
98.6837034000603
98.7216310712845
98.6544427590293
98.6511458560117
98.6598186643342
98.6766837246268
98.6238300842901
98.6868157150405
98.5146793881485
98.4422985276344
98.1963681735798
98.2515105842209
98.3948127478904
98.3312462965541
98.2151281712974
98.2448003952877
98.2102587719
98.1799442688499
97.9074688115478
98.0077972845101
98.0325685389601
97.9759072066447
98.0284698384124
98.0142574943239
98.0486603482399
98.1224190781162
98.1617800826044
98.0651738718594
97.9229409655552
97.9901461130984
98.0687916098927
98.0733446306837
97.9898309268469
97.9062267000704
97.9371464875508
98.0820124272372
98.0299874643563
97.9143081873363
97.7105265913371
97.8452997761867
98.0260194482672
98.0595655455506
97.9976858283283
98.009313601855
97.9849606700354
97.9932905004057
98.0949665748314
97.9185332822225
97.8111207214723
97.4970321286512
97.7227444912698
97.7001908877453
97.7532825514427
97.8044093247384
97.6483739032803
97.510210670848
97.5202949061972
97.2376884313534
97.0726583660169
96.8123208201508
96.0265971005263
95.3357529442521
94.4971082406166
93.4758051405796
91.9573770195836
90.2781619340769
88.3491977191322
86.0615851360481
84.4670071081059
81.8929040254307
79.5364363933455
78.1411169002525
76.3738830765378
74.7661864761279
73.0843001337905
71.3052987592759
69.6610131981647
67.9645969820177
65.54174831057
64.0522110891376
63.4754024312045
63.5284007128321
63.7801307393763
64.2210894183472
64.9939091325783
66.4144810855687
67.6100354216058
68.524397771524
70.9536537443882
72.7114663190969
74.2963775259793
76.5197695330719
77.1365738304789
77.7193938152471
78.2851694180482
78.0547072583976
78.1111911757343
80.8926823777278
82.0324513415008
82.2691787818004
82.2351064492039
82.8705612702548
84.2526594927723
84.2818023077492
84.7875608600633
86.4591416898314
87.0193433199722
86.8007193844897
87.4383667288799
88.6299540747996
88.9372570651995
88.4027846672108
86.9834432503092
88.3214826026671
91.0949069511234
90.5770229600099
89.6973109520028
90.9669504603778
91.8157018462601
91.7432235701044
91.4379755666557
90.9037755940275
90.6509088608504
92.2872401896151
93.0233285605371
92.6902483461817
92.4012372729627
92.5549113943859
92.600655903573
92.7247303591275
93.2936949830467
93.0838905706038
92.4355960228733
92.7637277420265
93.2750521138933
93.0807511493165
93.047847797285
93.26307537394
93.6912226411507
93.9242777779932
94.1744226986421
94.4254601681742
94.6179354592025
94.7050590701428
94.8356004344126
94.9823366147977
95.055952653641
95.0355717216964
95.0050327595721
94.8179230134207
94.4521299230446
93.9194529886826
93.294677354025
92.6071696391335
92.3232955591299
93.5319169394173
94.1053372147678
93.9294099545391
94.2649806257746
95.1084378290459
95.248755070226
95.3025830062197
94.8064755850262
93.4730251255875
94.7264553093903
95.9442980298218
95.7780683236045
95.8829076136385
95.734820847779
96.0125934849103
96.0365416102208
95.5879178741398
95.3180135221576
94.9465559366121
95.5836405901967
96.3912162810813
96.2052964555462
95.6403493873735
96.0971332442899
96.0980618840105
95.7402999423577
95.543289175403
95.6392386388354
95.2986443776251
95.4079754994516
95.9307977287767
95.7830354777196
96.136525948246
96.0464258700293
95.3331036404073
94.1349458969981
91.8936219849448
90.9827850104644
91.9928993862626
92.8241784130432
93.6353823412311
94.4828528613303
95.4580470497309
96.3123163384685
96.4373292096602
95.8710595054843
95.8089667136036
96.0117576416902
96.0214124178807
95.7397712045639
95.306594724311
94.9959137946031
94.3912024216368
93.5899238602208
92.8549172916038
92.3635336423974
93.0449589304523
93.3755923527533
93.4363697239223
93.4587510091887
93.7875485398521
93.4233791611457
92.6061184500773
91.9463961771313
92.6328101939715
92.8942450419025
92.788546240485
92.7832050154937
92.8505569625548
93.2734329542381
93.4929289943668
93.6107651778637
93.6770652237902
93.5822687380994
93.5710656366342
94.4568813775821
94.9035837756216
95.1103509762401
95.4740810298269
95.9034296233393
95.948670211175
95.7348429823601
95.5768432155592
94.7271080497503
93.5967901735013
92.1953861013634
89.8379496873831
86.9273484203512
84.3179948499549
83.0892846637193
83.2150108332274
84.7239041163598
86.9132403674401
88.5065995928275
89.5477821174193
90.6962583634178
91.3572889431027
92.0978464379303
92.6931905180135
92.7382473301816
92.5721050484202
92.6516028736906
92.9380567180988
92.9279470357273
92.9437270958009
92.8721765701007
92.7652305742245
92.4090461963884
92.2146659565775
92.2713784460144
92.2621763588744
92.5352194633251
93.0157577111889
93.3189381403729
93.7970583990586
94.4108030300477
94.6586628451812
94.6198363791113
94.4324968150692
94.0463416188816
93.2615915642816
91.9637051240934
90.0485918762428
87.4714274317805
84.6795027049147
82.3120036026605
81.1505838836553
82.0241653169666
84.2739511570549
87.0467659896506
89.681218880626
91.7596466470127
93.0833989009014
93.7758784019285
94.032912874767
94.011041507388
93.823487727653
93.5423854948252
93.2454037351043
92.9375868089589
92.5547026940862
92.1429201931725
91.6828029703595
91.1725793340814
90.6999704671875
90.2130179681995
89.6512464394096
88.93242685588
88.0215826732047
86.9792271945897
85.8797444924576
84.7829922197093
83.7404103595642
82.7374861284241
81.7785759419451
80.8586943449412
79.9016659946653
78.9319892698436
77.959867055149
76.9975088954424
76.051090704163
75.1129600279194
74.1372389961614
73.1259715978275
72.0926025485335
71.044297730302
70.0094479149191
69.0442074367804
68.1911040921919
67.4978766166258
66.9378846073295
66.4410601666146
65.9414001061597
65.3960035913683
64.7959771598574
64.1553906421669
63.5158110626901
62.9261519293416
62.4410504275355
62.1083914755874
61.9512753528169
62.0143276709746
62.2910166784259
62.7489311612913
63.3492360005846
64.0637973312503
64.804099552719
65.5215957168542
66.2320759285607
66.9884793756007
67.8363298192489
68.7922002521545
69.8277479845982
70.8991074503401
71.9637505346246
73.022120670676
74.0220219877412
74.9786800854022
75.9538254567841
76.9406090990939
77.9097305283945
78.8534794311629
79.7902884679476
80.7292195080943
81.6353928300651
82.4810190688757
83.2500113108865
83.9257879602648
84.4891231906466
84.9672593987987
85.3126382566296
85.4721087958416
85.4966346017039
85.4695468839905
85.4898450994822
85.7035331222351
86.1813072506175
86.895436667841
87.7284451757215
88.5087387252872
89.0996950308657
89.4961632279952
89.7228508666608
89.8302032763495
89.8390993671198
89.7419701084299
89.5239195479119
89.1569689904396
88.655285102169
88.0383527771868
87.3093998280585
86.4494349828006
85.4076614711231
84.1299563895079
82.6303154810447
80.9030303638811
78.9866056778229
77.0516097342655
75.267047367825
73.7261963963668
72.4399590170151
71.3905801815794
70.4885330187792
69.7225020553078
69.1427200255662
68.8064304530639
68.7362570364095
68.8085965192677
68.8439819844937
68.7495594335665
68.3767595682148
67.6785642115353
66.8093685189952
65.8969294386254
65.0420073200369
64.3231259415708
63.7459523624134
63.3417670700743
63.0872042092174
62.9885006075752
63.0152002937416
63.1131105039631
63.2673327896563
63.509794697506
63.8378391722668
64.295817868128
64.9292495868869
65.733756308712
66.6381017912195
67.5776987905219
68.5149106270274
69.4656083694165
70.403442877082
71.2945181640036
72.1393380635678
72.9484465846848
73.6950033924407
74.341578287003
74.8604472288532
75.2612972554669
75.5314097817394
75.6776856803651
75.7373164125156
75.7396033984435
75.7678805372523
75.8942962879911
76.1102334685983
76.435019776337
76.8738331704431
77.4249341550058
78.0504636275146
78.7047526746009
79.3219429022783
79.5194708322465
78.4645703627489
75.9836059385536
73.1652933729772
70.7807116774937
68.6726805180338
67.1637207811139
67.0291763756698
68.3919390866954
70.3994485303261
72.2401522046581
73.7329658396773
74.9381816622142
75.8551621875663
76.5760249189238
77.1987932828014
77.7592821637022
78.2574857408197
78.7054614198922
79.0597165179797
79.2793191261987
79.4179351065913
79.5725551911227
79.7648178904394
79.9201071607855
79.9197770113853
79.7179524756254
79.2841583980274
78.6628666889701
77.9624289873428
77.3422954261313
76.9916966010132
77.0086851562786
77.3089493345363
77.7885309287753
78.3611009141654
78.9203680857909
79.4437238441139
79.9708383595998
80.4423172397848
80.8585867412648
81.2597102226249
81.6295065728784
81.9551035418088
82.2406255350575
82.4974204563589
82.740883469749
82.9853456774828
83.1897153712931
83.3389073971822
83.5049813420313
83.7208552548008
83.9379073909465
84.1236655394947
84.336443914343
84.5297279008108
84.7222475606203
84.9269674759983
85.0887544383713
85.2204802263257
85.355687588189
85.4488357511862
85.475698124071
85.4437444320222
85.3376784016188
85.1295326440522
84.8752913941494
84.5886603836769
84.3502050486217
84.2132147210434
84.1558555979179
84.1995594626033
84.324201498809
84.4960353557358
84.661341894238
84.760006193511
84.6765848261914
84.4116630745305
83.9162022179134
83.0685074198597
81.938228751082
80.5987541289475
78.8299100277308
76.274626132376
74.0093878124171
74.0238793050253
75.8665335194402
77.7103386192239
78.9816701086343
79.7805596077296
80.2787506467542
80.5230338270734
80.5781738012854
80.529342979652
80.4173628082434
80.1634028024154
79.7071271688421
79.2989554358655
79.1543222881532
79.3104562913903
79.6642677167928
80.0889808930735
80.5712322066898
81.0660100911697
81.5417173837309
82.0242194585833
82.5779820372847
83.1072972023145
83.4570126934305
83.7035223774436
84.0119175953332
84.3621067471131
84.6400219477506
84.807395973883
84.9451966962037
85.1125647054956
85.2204816490048
85.286543068051
85.3724743593793
85.4862410774698
85.6716972046285
85.8635389841141
86.0074346350063
86.0177981702963
85.7160179838132
84.894940802144
83.9157982771372
83.5173996726979
83.9450123556585
84.663239652034
85.3962368054074
86.1181983942176
86.667181624095
87.0996153308542
87.5287635626053
87.8794387828432
88.2512358313153
88.6519755017272
89.0746683575903
89.4629836862879
89.8872066248087
90.3477295182418
90.7319734981742
91.0310388585847
91.3707464599138
91.8243850632096
92.2206330247656
92.471679423316
92.7403897341218
93.043683099898
93.3114530962979
93.4517380103202
93.3486128008915
92.7947392499489
91.5409359560546
89.252548432954
85.9660731464682
82.1777270797406
78.312202589687
74.5920535608796
71.0727823767988
67.3819378282177
63.8332152618829
61.0272818274194
59.3553679682431
58.9613754366616
59.7147819243149
60.8666103715865
62.0712774403797
63.3165970632554
64.5676965453328
65.6559125674096
66.6075370721552
67.6120524888612
68.6024246188491
69.4163382548078
70.5117889846922
71.5686612637205
72.6066115797502
73.7253562129619
74.6629149422607
75.2877870094171
75.874864942548
76.3565502501479
76.8091914666567
77.1883943114341
77.2809011873844
77.3187719983136
77.7875238979647
78.3461780775524
78.9127296094064
79.3578405423049
79.3675569159646
79.2547149783585
80.587119092067
80.9662729019715
80.6677970113641
80.9713542461702
81.2383094659545
81.3103766723123
81.1763398088888
81.3300706816553
81.8635546679062
82.3444044472223
