1798
3999.43349933624
650.420452594757
1
128
4
97.3638747025846
97.2993731317856
97.2371079699087
97.2535782316259
97.3654507075774
97.3743954157091
97.3182005789597
97.3018871460383
97.3763116274467
97.3892589401208
97.2874999675574
97.2627391852646
97.2843485745219
97.351147462341
97.3150090325002
97.2611984390673
97.3168660527982
97.4120900784085
97.3650999805611
97.2925648674712
97.2972507875262
97.2700568467805
97.3137980490409
97.3855948105289
97.3673505119783
97.3493457222218
97.2984969492698
97.2586512712797
97.2393038185151
97.2537290250701
97.3465186734699
97.3164047076874
97.302402768601
97.3390893968901
97.2291541320538
97.183304405337
97.2549804835267
97.3905914177785
97.2948629279163
97.2831984750517
97.2744443430376
97.2583948978643
97.2156761947681
97.1786319753786
97.2408678611786
97.2785982790828
97.3540846567299
97.3808092425879
97.2206531387704
97.0312619192084
97.1018997335238
97.1761180944006
97.2262326949025
97.3655288582793
97.4315753748919
97.386589447943
97.2496781267115
97.2571656608411
97.3165798796268
97.1864998853634
97.2950184966572
97.2574732694874
97.1429656858237
97.242002405126
97.320761302967
97.222944913688
97.3401965791064
97.1488512270941
97.0072934304746
97.278111255393
97.2534394151983
97.2574569864353
97.2240753320105
97.3723361179781
97.3628657877303
97.3201802356144
97.0045970184432
96.8838658685102
97.049280659199
97.3058451058819
97.524664821379
97.5553254950654
97.4119305532926
97.2049300853028
97.0517543587013
96.9723728557685
97.0892352696639
97.355392369712
97.3594196459328
97.3957095693669
97.3104258018308
97.3341824737857
97.4806472686933
97.3528300644449
97.1648108466645
97.2346353081387
97.1241792937168
97.1953723759537
97.2945098080888
97.3316753097473
97.4044012449963
97.3071412484673
97.2920137009143
97.2202363572295
97.105242460923
97.3121260422057
97.3307115751087
97.2462580355754
97.2969937033124
97.2490744263754
97.3045705820918
97.3511428364338
97.3466440807591
97.2659148752436
97.2100448671859
97.2824590743881
97.305525869786
97.3644969334676
97.3846675071495
97.3389757311051
97.2829039462029
97.1732504370589
97.1944951404507
97.2808028140973
97.3554924166224
97.3882966569102
97.2831440841152
97.2558621048068
97.136667114961
97.2449250995809
97.3190256640137
97.3331231523801
97.131595479392
97.1937750322958
97.3025982591375
97.1393396738751
97.3198341620464
97.1966262633286
97.2887533873192
97.1960944654485
97.2040295041775
97.0565532750752
97.0426777057876
97.2056954049829
97.2532447915187
97.328590452899
97.2512965649823
97.1521083372586
97.2507118560736
97.2896410957889
97.3794019729547
97.3046580768163
97.2811811262895
97.3628906850636
97.4107732143157
97.3350194208736
97.2692798678411
97.2974963666525
97.2545792629158
97.2071116294244
97.2876374702854
97.2794085254042
97.3207711283484
97.4257530650279
97.420620537876
97.1682865333217
97.1982046133165
97.3134586082269
97.4128128809088
97.3139963255138
97.2014913308928
97.0757019731859
96.8887646338057
97.039492497692
97.1512993801689
97.28025800747
97.3284229277217
97.2939252400197
97.326133994449
97.2662458881682
97.1484632575235
97.1727505479665
97.0406405955693
97.0393140308204
97.1222270659447
97.0551859212929
97.0807679187317
96.8956452827316
96.963099732609
97.0782145925411
97.0874643131836
97.0976692105175
97.1229584589037
97.1410162927511
97.0139370587493
97.0069492705125
96.9696101579664
96.8762818357992
97.010241611143
97.1525925489606
97.2088852585751
97.0787421328335
97.0611525326888
97.0394021972441
97.0397373867386
96.9437437382984
97.0997918285036
97.1676599533203
97.1298104524286
97.0756206731048
97.0306693463672
97.0698804609191
97.2774041869754
97.3583351903225
97.1413823328534
97.0290524497731
97.0992048050481
97.2156659315464
97.3373465491208
97.2396813055867
96.9532869630776
97.0148083318823
97.1939321638154
97.1651181611721
97.2348719692266
97.260950185628
97.2374710492463
97.1721233919361
97.2217938411399
97.2524761709895
97.1297199197687
97.0509974147517
97.094190074313
97.1460010137447
97.2336000374369
97.2369988470301
97.2069974183542
97.2182198218415
97.0923236658378
97.0102510519867
97.1126118381456
97.2038576931399
97.1349168723974
97.0547491529038
97.0554223730082
97.1410835007275
97.2866004769233
97.3080534192277
97.2090094250051
97.1605927603899
97.2546569792706
97.178517744939
97.1368278101848
97.2317860725284
97.2597655985356
97.0844043724631
97.1464457898736
97.4068095241861
97.4887106735179
97.4084868992693
97.2325662022955
97.0475016951186
97.2060168719701
97.312652919758
97.2037088428347
97.1340682492637
97.2337942177372
97.1459449764506
97.0003977104153
97.1188524217797
97.3051605904075
97.2519760055149
97.315344373314
97.5071518351093
97.5657485125902
97.3971234548488
97.3266218173813
97.3090950630796
97.2669746815951
97.2294574113517
97.3151067227236
97.3455827880373
97.2272199498932
97.0503185939298
97.1722170307929
97.4261291957982
97.4584691973506
97.3361730923899
97.2606610613146
97.1898784807882
97.1235680004691
97.1016194272244
97.2325628524638
97.3776149742932
97.3233818396148
97.1684079462949
97.0759642018193
96.9742561675291
96.8967110928193
96.9133080404693
96.9050977622918
96.8579329871791
96.9246042650919
96.9114133966786
96.8392307133922
96.919529780893
96.9942758310237
96.9458767597357
96.8662170884421
96.9353063555485
97.0174571300605
96.9517572437821
96.9153211159419
96.9512773656499
97.0161658045755
97.025227912999
97.0871349319877
97.0241567610945
96.90580964754
97.0170768360544
97.1557896745467
97.1473809344882
97.1354055158344
97.1528168455307
97.2764115673661
97.2750052069464
97.2299277347939
97.2494886872313
97.3525241652356
97.3669721951018
97.3198644140968
97.320082188766
97.2523348086395
97.1353961993348
97.1541268409039
97.2467229787145
97.2291151825604
97.2133848892406
97.1926060021186
97.2323718466487
97.2924192402841
97.2837700612702
97.335597297385
97.304514590759
97.2628707082543
97.2962030042359
97.2137700797411
97.1067583410864
97.1948180163493
97.3402634850053
97.3820438314678
97.2224292265259
97.143383715538
97.1187864615739
97.0638951150651
97.0994850724377
97.1974560252261
97.2495448830011
97.1691965616215
97.1917706727579
97.3220543458041
97.3160976907293
97.3302930594783
97.3051661731648
97.2708419695242
97.2766248276084
97.2872064942192
97.2574085532784
97.2188971698452
97.1856271650618
97.1440572364871
97.1482797180264
97.2774259400208
97.3172437151883
97.2375695805848
97.2485699406032
97.2977096724324
97.2471987915492
97.2009118986717
97.2082201912579
97.1832777935087
97.154456049463
97.2103170121649
97.2456089689707
97.1766626334972
97.1287724349455
97.1598232663533
97.1856363605112
97.1867231080186
97.1952013928644
97.3331631141048
97.3423246800571
97.2411877892366
97.2437385234389
97.2279725903196
97.2259014463855
97.3066861013002
97.3040885070061
97.294864938181
97.2591551968775
97.1737245799984
97.1567642727674
97.2222272871852
97.2237717417972
97.19221058144
97.1909605457997
97.2317112615457
97.2554795638721
97.2330035569861
97.2066414273402
97.2334834231887
97.2144437442427
97.1803107356048
97.2628181031014
97.3576782573525
97.3198972847984
97.1970455736214
97.1550839035392
97.1836091254755
97.215829162422
97.2094397799642
97.145339270946
97.1805286867217
97.2158608122184
97.2123008335313
97.1811747930547
97.1911136236272
97.1536589838377
97.1505803114514
97.2283440752411
97.2863883906804
97.2664710087269
97.2134035231584
97.1849338572874
97.1708302845009
97.1349861380651
97.1805966429363
97.2664174462282
97.3117968895734
97.2574068603467
97.1994995336282
97.2310112645746
97.2771778066811
97.2978424738887
97.2999750208488
97.2822195577603
97.223641611866
97.1866061268606
97.2304698453127
97.2119384302453
97.1557102920921
97.1797296610395
97.2202052688255
97.2247262338416
97.2881860593026
97.2590370098147
97.1525553163921
97.1705396028947
97.213398601984
97.118713335671
97.0598241939646
97.079121122744
97.1169191898465
97.1519059658785
97.1338226727122
97.0651940640695
97.0648278647783
97.1031459794136
97.1201926176134
97.0459762800094
96.9879068109219
97.0382560279774
97.0622534837293
97.026689840121
96.9949835754712
97.0040469128314
96.9970772968652
96.9665193690746
96.9787762808592
96.9603627008738
96.9156173842091
96.9070558401592
96.9621562532868
96.9918360525174
96.9628556914299
96.9382239800964
96.934584786868
96.9450481250634
97.0102643178518
96.9520950493418
96.8604062023127
96.8003193461954
96.7639816035319
96.817532786872
96.8482773110267
96.7916867023152
96.7882825408039
96.7913187917258
96.784902186924
96.789520966007
96.769380941328
96.7392319145528
96.7552820909184
96.7572608027187
96.7833214222515
96.8199590872858
96.7358789422401
96.6429951746355
96.6838876455086
96.717840830673
96.7882951536154
96.9175838098849
96.9237488141623
96.9047708279391
96.9946893961113
97.0605930726463
97.0270409182257
97.0305279207943
97.0353516680861
96.9911097968976
97.0144297107125
97.033010212643
97.0135816161964
96.937881968852
96.8630250164194
96.8755779591416
96.8480797595326
96.7325829335694
96.66513699371
96.6282707400946
96.6196144507769
96.6063307285538
96.5824769805296
96.5516336944953
96.5142216538519
96.457670251868
96.3807189358322
96.3585139708799
96.4047871265442
96.3636353561399
96.2921585613266
96.2714117503992
96.2886034566028
96.2624165687092
96.1382636024613
96.0243745755006
95.960502752073
95.9027915402346
95.8119268456433
95.614656303468
95.4471001429119
95.3768147322326
95.3282769229491
95.2443218701808
95.2401846367454
95.2648328357501
95.257017856446
95.3184241475935
95.3670056576736
95.3914938578547
95.4985555131414
95.5957070023876
95.6843747184305
95.7615499510495
95.867225226818
95.9688872014967
96.0717898762569
96.1360289540792
96.2196233542916
96.3187914527804
96.3610479841275
96.3896810751864
96.483551641164
96.5456007035473
96.5434658426542
96.5373628063291
96.5621328199936
96.5441296674118
96.4894791830535
96.46790737915
96.4666862719934
96.4261443741468
96.3781830135287
96.3545544591053
96.2624330616001
96.1243945005751
96.0934381414154
96.0950783973613
96.1407435192778
96.2374108202515
96.2565942760995
96.2663623888262
96.3275080535533
96.3872543243683
96.3958201919779
96.3976668424319
96.3975686905737
96.3650716067933
96.3570245552165
96.3734734913288
96.425648951501
96.4681609160508
96.4816965629956
96.4515082584563
96.4471298392023
96.5138924108473
96.5727092860958
96.5501230295014
96.5154453665699
96.5170014944436
96.5313860279433
96.5361715558043
96.5340039867551
96.5726868323828
96.6444784694936
96.6633362927477
96.6822129738493
96.6922276673137
96.6788092303649
96.7188194149482
96.7379002919907
96.7378539149262
96.7653183149328
96.7690762356305
96.7954562437511
96.8330456586722
96.858696637396
96.8666406852055
96.8903742176626
96.8930578330752
96.8675396674978
96.8564956811753
96.8587055731206
96.8832425384858
96.9065281128686
96.8616143257523
96.7968305128352
96.8109187309354
96.8564031110989
96.8624273531744
96.8560325059113
96.861968381121
96.8612580218216
96.8767544545064
96.8910360100742
96.8481725632008
96.8580010673345
96.8955404018907
96.8944723436505
96.8797660007392
96.9007694017106
96.9304585320843
96.966972257874
96.9901005062364
96.9475451590966
96.9080716646135
96.9292168725833
96.9342046223883
96.9232130590742
96.9081117544672
96.9220674080472
96.9917453765511
97.0065655490162
96.962058787595
96.9489969899123
96.951289165808
96.9672528343742
96.9646586535288
96.9444545469015
96.9456119531687
96.9599553973548
96.9504182677552
96.9611550383739
96.9883501248071
96.9773317125262
96.9524040392321
96.952343536246
96.972263232001
96.9739747867001
96.9631389703059
96.9781364456467
96.9999121600677
96.9986622584758
97.0088469612371
97.0068753562109
97.0043002230522
97.0284436212135
97.0460965593237
97.0316528812951
97.0369211505097
97.0782423240208
97.0961396295643
97.076024935467
97.0578507109093
97.037817119887
97.0100835895316
97.0380824131956
97.0671350746013
97.0701562154467
97.0754135431786
97.0708691162658
97.0860124439869
97.0944258482784
97.0937035293436
97.1031581314223
97.0863994429688
97.0571331095406
97.0373615288899
97.0432877921674
97.0502453293854
97.0328862797379
97.0057228858777
96.9985727400302
97.029584352355
97.0620401848405
97.0699141461641
97.072667801281
97.0538449687316
97.0150607110452
96.9918444223755
96.9935342863055
97.0154739588072
97.0358186112651
97.0193282686626
96.9938070751066
96.9980467084305
96.9730651970907
96.9450212281615
96.9623271158503
96.9964724853368
97.0402294802991
97.0539376111425
97.0329637156643
97.073165319252
97.098290210141
97.0584197011482
97.0076719260989
96.9967060083466
97.0007658509928
97.0063922925357
97.0361952129422
97.0761567653792
97.115453772139
97.0608396870167
96.9947428581453
97.0780339388111
97.1222329141501
97.0728210273705
97.074342694076
97.1243301055894
97.1911760407896
97.2111725044442
97.1630079095447
97.0899301823572
97.07977272252
97.1136439487012
97.1339649008797
97.124578569155
97.1224482011099
97.1332444699687
97.1640958157931
97.1883487515175
97.1324392266858
97.1353852578115
97.2266130607357
97.2753754983115
97.1931352658346
97.1378846140227
97.1295832208236
97.1021253065378
97.1677388907969
97.2267192009401
97.1924927721661
97.1502149179462
97.1063044443857
97.0993502728753
97.2053871768094
97.2667917295007
97.1659082358862
97.0664201012318
97.0447839632972
97.096803033134
97.1860301396608
97.2161327832834
97.2216507550383
97.1941198472949
97.1570050667094
97.1683699724671
97.2234417363672
97.2657222306694
97.2096903766051
97.1677363423014
97.2157036500907
97.204535667914
97.1684308382467
97.155472902821
97.159194397747
97.1755732191104
97.172338969765
97.2131163492053
97.2678715604872
97.2843672885949
97.2660452893981
97.2494578967475
97.2056593205118
97.1485091390282
97.2060987058987
97.2577464837774
97.2357749075214
97.271712218795
97.3478473762671
97.3243776643561
97.2429121151308
97.2174946967943
97.2305465817885
97.2980490547291
97.3521021192608
97.306923870073
97.2156796972622
97.2276129698069
97.3305568712107
97.3571827150166
97.3277263990047
97.2601108742043
97.1956613000384
97.294414809575
97.4105375295029
97.3691483032564
97.304832021216
97.3512665122657
97.3965187582267
97.294862539169
97.237288863664
97.3364050934302
97.3605709798423
97.2819866802338
97.2726975973757
97.2501700519285
97.2476963401503
97.3192534904519
97.3182801635619
97.2222793718625
97.2347713376498
97.3045801899484
97.2712830151407
97.2964714821678
97.303509869577
97.2422689704974
97.2158607800455
97.2017667798006
97.2325010061182
97.2905443148276
97.2983225615521
97.2777678012302
97.2308019679954
97.2223121173655
97.3088434336752
97.2988600218833
97.2137170969238
97.182762147134
97.1879855432179
97.2340246114908
97.249232142702
97.2204457615286
97.2126981982355
97.2207591614804
97.2129491128635
97.1946596615716
97.1766379117191
97.1669364839267
97.1956116015598
97.2771446587525
97.2851324556739
97.220995015328
97.1710899556093
97.2720080535728
97.3892498636054
97.3644784094454
97.3480368620771
97.3540453217069
97.3687278849478
97.3612458940351
97.3302995470038
97.3145063536575
97.2855394706789
97.2834205314839
97.2402744676402
97.1797697673265
97.2030226960332
97.2492751745261
97.3542849380243
97.4411062199789
97.400558920326
97.331681614065
97.3238015575202
97.366672150275
97.2977523645075
97.2096007620685
97.1307551881909
97.0292947865604
97.0423358495996
97.1291368302109
97.2316240561674
97.2603099400308
97.2445343055487
97.2743474463867
97.3328987413358
97.3430663733037
97.3140481542514
97.273151077865
97.2658654435076
97.2782956496178
97.2624047353211
97.2433307820574
97.2746347275146
97.3089427582349
97.3323622550126
97.3039238725519
97.2519438165734
97.2902961374095
97.3003334540242
97.2351390010994
97.2551909462167
97.2831622844851
97.3947020148305
97.5838615720777
97.5533802662917
97.5497283307748
97.6135891540096
97.5165741963774
97.5800262006428
97.7228338608656
97.6980978367133
97.6785283272549
97.7755882621334
97.7446596674294
97.6076967616954
97.7012182222847
97.7286126001743
97.7213140444316
97.9597120329449
97.9917185558583
97.8500497532864
97.7840621532596
97.7020354316539
97.673281849963
97.7009040572305
97.7776351519648
97.892245228758
97.9885730682163
97.9554054051329
97.9386111466053
98.0522614114835
98.0113677993571
97.8103425694081
97.8516853021689
98.0464688295987
98.0471240736148
97.9639939821873
97.9544503880348
98.0567759548641
98.0716724498889
97.9143140757454
97.8731384801312
97.9573547494555
98.0246317151277
97.9886066629476
97.9904550871254
98.2996324874047
98.4888118220898
98.2493000054656
98.1133101106248
98.2823020745097
98.4610739499043
98.3504139448212
98.1925735632623
98.2924838743192
98.3374384695733
98.5669374881353
98.6389042726836
98.2740391776595
98.0904963212803
97.9445293585638
97.8821693713449
98.2264364671493
98.5262607608863
98.5267910839618
98.5650320610184
98.6847659435838
98.8329779605516
98.7904327461299
98.5658611560104
98.4646314574604
98.3633092900766
98.2466884456936
98.102496723439
97.8838704981774
97.9294757581611
98.1880250268942
98.2402351245878
98.0655804757303
97.9854084235506
98.0032788280606
97.9698564668859
97.885979701999
97.8421432843403
97.7960641093372
97.7195370834293
97.6392850650379
97.648946811591
97.7147411541804
97.7571551799659
97.7065426829756
97.5800842427453
97.5474894894872
97.616906720558
97.6540561241169
97.656119359179
97.6809255214433
97.6683974714794
97.6070508862308
97.6449361074661
97.8774095375137
97.9663254448544
97.8542896456235
97.8226712414523
97.7241741232785
97.6301092641436
97.7222069353563
97.8730152236346
97.8084719233101
97.6574506651821
97.7269324630639
97.7897654572757
97.7269296909537
97.9130551144538
98.0417568441489
97.9200318178824
97.9436580492438
98.0882505356129
98.0793647540347
97.9657572693956
97.8937742845011
98.0804516115147
98.2980468576787
98.4512116681942
98.6773136091739
98.7308645199055
98.5888271003963
98.6632599237991
98.8134520247701
98.922624831915
98.9699692842798
98.9128798791466
98.8299630570149
98.6632694784732
98.5960868664367
98.6702801827337
98.5696511067782
98.448880612427
98.3035810608246
98.2395951123857
98.523562038358
98.7821303873007
98.6289453000699
98.4481459752771
98.4222218504017
98.5020677252589
98.5399257994261
98.6371193112045
98.5907928905639
98.4998474079471
98.6589173882522
98.8570338472087
98.8110791588133
98.6391688265457
98.282194830102
98.0784880912518
98.2991628793528
98.3997780288211
98.3597566831408
98.3745749063511
98.336005211548
98.4916014077495
98.5860614821799
98.4577140004611
98.6058513580011
98.7749062686674
98.5734934461408
98.571956962748
98.5665745313987
98.5347228242713
98.4618875230693
98.2288123697152
98.1374701983588
98.0851503890449
97.9302125949966
98.0128325298193
98.0848080001718
97.9659514881295
98.0436644090962
98.2385267018426
98.1730277840571
98.0335149683706
97.948140837598
98.0316091984176
98.1410029968189
98.1491628716409
97.9869697772921
97.9958233574215
98.0828465262223
98.0769475676529
98.0091745840408
98.0504546413936
98.0680668807527
98.0744841813798
98.0249936711437
98.0185900972458
98.096032366533
98.1270872932884
98.2207596414205
98.2633869361095
98.1919324426456
98.1745535217548
98.1516391606415
98.1350745428955
98.2042429902315
98.2892041576181
98.2543706005755
98.2440340091242
98.3016821140946
98.2758180854539
98.1937074568047
98.2275136943417
98.2306714336291
98.2383271309572
98.2428394355671
98.2821715532697
98.2614740566514
98.2972015911615
98.3754636205626
98.3505364721796
98.2620395513315
98.1613759934042
98.1785679712841
98.2674537852177
98.264294311289
98.2767072078984
98.2157277379275
98.1433264655497
98.1248973525927
98.1312779634609
98.1297212359303
98.1973406618804
98.1526005728927
98.1697607030685
98.0817843594449
97.9972546625558
98.027455575814
98.0525017123863
98.0108496247778
97.9809770992404
97.9040921098536
97.8677739264768
97.8160884915868
97.9079666069486
97.8560571865609
97.8253464709144
97.8417284854085
97.8263907616234
97.8640218386497
97.879108270683
97.887727328615
97.9040377252629
97.8569454660986
97.8368188946316
97.8763178539972
97.9247100739076
97.8746191589143
97.8099013930463
97.8195602602425
97.8692516672315
97.8839373928557
97.8811353047237
97.8101536630225
97.8827050168678
97.9618564256972
98.0031664773098
97.9777234556309
97.9773600625008
97.9455348373465
97.9481393516235
97.9601582187488
97.9263619158397
97.998167851719
97.8621020681721
97.8850806577326
97.8578783933352
97.8571271178985
97.8538977589807
97.797329489498
97.7040682977164
97.7005525625216
97.5341920172708
97.3570523857628
97.2071041642148
96.8554147101981
96.3796658520825
95.7025498724438
94.9325608928795
93.8804816998062
92.7184450607672
91.39191051406
89.7123943647344
88.5869298421449
87.2175398023993
85.4051967324278
83.9811953255346
82.6623664820476
81.4282997245958
80.2528364965994
79.0067954060957
77.7499636664819
76.6404142259422
75.3853626090356
74.1855177748351
73.3396080799474
73.025431689218
73.0596664002534
73.3167793721737
73.8557447701739
74.8121693276548
75.5158755052226
76.4187164688366
78.1534978039002
78.9862014222079
80.2106874810746
81.5491754901946
82.0210006598725
82.673872259955
83.2285478847422
83.3327921783862
83.7653500136811
85.1979375585742
85.5845169834913
85.8358373559348
85.981054320523
86.5961710100906
87.4587978622558
87.5432086565642
87.9783862152979
88.9701604663763
89.2958901992683
89.2813845824855
89.7896802481203
90.4753576300727
90.7093779631191
90.5761307383431
90.0247090339799
91.0199945327768
92.334481717695
91.9862360732793
91.6535587060488
92.328138196106
92.7324329721964
92.7358775505168
92.6436746855303
92.45147145838
92.4605211652478
93.3360285387579
93.6228039721187
93.4443158560841
93.3566235273769
93.5547561575968
93.6046968050997
93.690857247926
93.9703735110451
93.8540694381143
93.569512045462
93.7614727421767
93.9323902169807
93.7836124221425
93.8158882558334
93.9938819895186
94.2344639265085
94.3794568548315
94.5476977223762
94.7248807283667
94.8790485679477
94.9783300538465
95.0757461735789
95.1551612930896
95.2221584559165
95.2213362939336
95.1698262322545
95.015399848485
94.7747496184895
94.3748388735183
93.9180492312396
93.5335798063139
93.5044497500026
94.1861012780435
94.510358884763
94.549759346159
94.8807696316309
95.3072048149562
95.3741121816497
95.4559863459576
95.2854388503376
94.8095454823967
95.4692875258461
95.9595094160397
95.9080137907685
95.9762793569243
95.875123982923
95.9964055466022
96.0187545567972
95.9207999291875
95.8941726619162
95.8019394518047
96.0195460114598
96.3457845914515
96.2905566925648
96.0703718946607
96.2149515031855
96.1876080590186
96.0601440206197
95.9575329351222
96.030551551868
95.9402623938507
96.0323094313022
96.255895018612
96.1929927325699
96.3210333569912
96.2286465073385
95.8543166172995
95.2359249754773
93.9870554643945
92.8861831999802
93.1374919372201
93.7979438542506
94.5818053439115
95.2954566794396
95.9088328811409
96.334819264009
96.4602800503796
96.336472745189
96.3148536315045
96.287954014678
96.2318660206901
96.0488903203421
95.7392026622614
95.5256513757227
95.2245040157609
94.7933749618501
94.3217737889579
93.8418551786642
93.9583662023622
94.1620185411505
94.3456727316772
94.4415143109845
94.53723609856
94.3409008487233
94.0544194063438
93.7600003741668
93.8537450986145
93.8375012057141
93.7983556690177
93.8323388239856
93.9465052676222
94.1682228342203
94.284301245806
94.3467154753539
94.4160304946914
94.4642401295039
94.609573583594
95.0774108131437
95.3471041123971
95.585662256119
95.8605049583683
96.1378035822465
96.2396071033427
96.1935230935653
96.1346476681391
95.7136672705858
94.8786932128283
93.6948428742658
91.9887876242428
89.9227161776059
88.0236406642572
87.0800505253022
87.1889984164169
88.2804968573167
89.7356503344805
90.8518475386873
91.7372631039273
92.5501670240068
93.0250458536251
93.4721440426965
93.7668162450465
93.864736300524
93.8735011377895
93.924898380789
94.0163144459431
94.0449457889117
94.0992862654605
94.0572211878141
93.9961634995117
93.8369159201823
93.687277769949
93.6128378248839
93.6177298607452
93.8449938975652
94.2069104526539
94.5455791509935
94.9395008902623
95.2714601661705
95.4096308912451
95.4394717995714
95.337357819908
95.0767487798547
94.5861344429293
93.7023859805175
92.3212584428718
90.4456090755715
88.4015400495562
86.7084508010726
85.9183391536801
86.4760209427028
88.0418040788965
90.0413090811029
91.9182116870091
93.3637996812159
94.2828955538722
94.7914251197038
95.008844862708
95.0218488447448
94.9021303877021
94.7272449094998
94.5499585584512
94.3247755747843
94.0364905765237
93.7738175230505
93.4676069732299
93.089670797833
92.732163838454
92.3880257706783
91.996807633515
91.4936597489
90.8707218970242
90.141117903287
89.3556916781585
88.5779976665279
87.8044757818836
87.0598394103825
86.3557457625998
85.6769856466173
84.9912293351754
84.2800643643679
83.5692998135051
82.8600991699772
82.1612588350345
81.4789492741553
80.7647455592266
80.0334461004216
79.2876475452117
78.5195837787239
77.7729074718729
77.0887978455339
76.459775524192
75.9157298204225
75.4896276716699
75.1117904232145
74.7170430509145
74.2894268603869
73.8217854103639
73.3386857392159
72.8789062874011
72.4581478393739
72.0969076997544
71.8348472505748
71.6981108221494
71.7101540644941
71.8715221482501
72.1738535245312
72.5728058961641
73.0454497770508
73.5440160529709
74.0438813589285
74.545729782523
75.0625477112975
75.6459275508126
76.3072978839328
77.0418903601988
77.8088464644622
78.5597171610959
79.3007729402807
80.0064272363222
80.6927386249609
81.3813720791545
82.0744937078915
82.7744766273064
83.4736727226714
84.1711892250065
84.8739107791517
85.5535031711427
86.1876447021998
86.7677760697388
87.2902868194566
87.7598659416939
88.1387299985182
88.404481575783
88.5587576568386
88.6003983569082
88.6009142240239
88.6398612900472
88.8010091051797
89.1301049606815
89.6414603502699
90.2573545458195
90.8206169698756
91.2536310700856
91.551572805228
91.7378593222753
91.8410425156345
91.8689685466396
91.8074210847893
91.6460038720834
91.3917138678729
91.0555460081106
90.6334172643814
90.1163307945236
89.4932061416575
88.7410815905992
87.8289105780143
86.7539718080904
85.5089396087481
84.1083785986739
82.6773072005059
81.3633674251755
80.2359981451795
79.2856227211265
78.4874286703325
77.8070059082937
77.2432910626784
76.8322828538237
76.6141674857224
76.587716028609
76.6640532535204
76.6908102499663
76.6149501975319
76.3723010184307
75.9055659453976
75.2923181475191
74.6368225804746
74.0232429404174
73.5150088270612
73.0920689908339
72.7556541808295
72.5172486525086
72.3949192570117
72.3738316642253
72.4202887139439
72.5186327157461
72.6496755129095
72.8244863670466
73.1243910871561
73.5583577096855
74.0877743939369
74.7110482834945
75.3994685194894
76.0786147793548
76.7481881646853
77.3952543015921
78.0173726481919
78.6337079808489
79.2250042820015
79.7668022680059
80.2379352244382
80.6138474867285
80.9156040106594
81.1465095513809
81.2863890068249
81.3355203351325
81.337719476433
81.3428147257877
81.3948438328973
81.5323040750086
81.7359895130574
82.0261417457669
82.4113713705095
82.8618592204065
83.3748466484928
83.8931237773514
84.0987323030982
83.3860730279355
81.6258552164405
79.6171508837425
77.9535160693589
76.4664021985495
75.2988840327164
75.0431868776871
75.8750734395061
77.2488671219992
78.5412940121635
79.6042558700416
80.4725325221603
81.1348053509165
81.6765025088732
82.1366335480003
82.5532252483601
82.9398051165122
83.2678961721839
83.5323279846439
83.7300746241319
83.8427818354504
83.9502255231629
84.0919498146514
84.222750110798
84.2828923594118
84.2114077478412
83.9551561400233
83.5413643767155
83.0110809947579
82.5201560652163
82.2408235249485
82.2216033925064
82.4420879596004
82.791831072951
83.1659925806938
83.5439002666507
83.902846146838
84.2627561765955
84.6043395095258
84.9265846701779
85.2027061109805
85.4144691191447
85.6196221829789
85.8424227049703
86.0547690234161
86.2391283748356
86.4213137788626
86.55915228958
86.6878739450695
86.8251588780731
86.9448077575202
87.0652708407323
87.2185714434421
87.398042508769
87.5403137935432
87.6483412020225
87.7791037071472
87.9396978643078
88.0373917594677
88.1336327262855
88.2403650045993
88.2745552597934
88.2369379270863
88.1473175486972
87.9996367233887
87.8245921169857
87.6822446150591
87.5391132171924
87.4032094346323
87.3101097571407
87.3257209320693
87.436710692422
87.5878897003116
87.7359055172555
87.7961738071634
87.7671816075259
87.6352232335731
87.3195753782789
86.8136935202531
86.0879163242318
85.1650616129754
83.9131612313168
82.0269825183737
80.1649772650087
79.9212332860374
81.1471982348906
82.4623076485376
83.3765027261787
83.9763422568415
84.3464295183371
84.5368437095143
84.6157359795621
84.5873378373996
84.4761542548741
84.2959512679269
84.0087245934865
83.6911749087499
83.4946961282308
83.5593263376527
83.8418690783177
84.1985369718434
84.5409839173422
84.8601162114941
85.1824960332114
85.5782864752994
85.8913423489606
86.1369319490307
86.4265655327585
86.703002134355
86.9424088322726
87.1772256325936
87.3728647735244
87.4433768408645
87.5081898024836
87.6136822137821
87.7721431511165
87.8933330589823
87.9474101889297
88.0428151439851
88.1713026327064
88.1864749748455
88.26262077394
88.4114550606919
88.307580135519
87.7072010770793
86.9410722758621
86.5489683429087
86.803966611659
87.3788404494999
87.9063648228644
88.3623978099939
88.7549247005337
89.1044989957837
89.4130843758607
89.707870906926
90.0154170187955
90.3571387862123
90.6699839744409
90.9382374443017
91.2272353482584
91.5267326452216
91.853512840597
92.2009137379416
92.4658043005202
92.7323988794152
93.0535877598917
93.3393540738111
93.5913831855366
93.9272444680896
94.1770414536133
94.2147569453678
94.1209447947442
93.8739800686103
93.0699687341064
91.4305001976486
89.1398605723561
86.3860138511155
83.5388265373783
80.7555718267547
78.0911771437374
75.329390102297
72.5274724607429
70.1635121497611
68.7086194972632
68.3953976190955
69.0071476966148
69.7739851283156
70.6187232831191
71.410934092551
72.0937973311375
72.835586064912
73.6966323112065
74.4793596663037
75.1927274882773
75.7258230082132
76.1835816302055
76.960849515865
77.9445410176956
78.5324755067495
79.2023142671228
79.9215631952511
80.3477566016343
80.6249526883572
81.0648245901358
81.3007130110782
81.480700904973
81.789998005842
81.9527521600307
81.9038274589912
81.8646218892137
82.2300897784987
82.9529899474049
83.3056280311461
83.4270204283118
83.2962549073222
83.5566886334025
84.1436084118055
84.3114988089852
84.1916169406074
84.1591761509022
84.5112729861277
84.8855431124121
85.0318965641373
