1798
3999.43349933624
650.420452594757
1
128
4
98.4050333729357
98.3576303548578
98.328509274377
98.3541813347321
98.4238142385747
98.3867529694611
98.3306286406973
98.3805964529871
98.4410159224662
98.3904050975388
98.29879230767
98.2345656360952
98.17524921706
98.2458312464552
98.2943881879276
98.2966074299343
98.320470934641
98.4060783673242
98.3967928015462
98.3177640478502
98.2722611737865
98.3258234927411
98.3354190762018
98.2849334352266
98.2709050365482
98.2975893472492
98.2856605074001
98.3581715299397
98.2908656286817
98.2001468535547
98.3122934098134
98.2953531584944
98.2828130750563
98.2964857043735
98.209903942891
98.1839581057447
98.2033682445529
98.2610599706495
98.1814196350603
98.2732961366421
98.2482260609314
98.2036960656165
98.1104641231298
98.1578877115932
98.205834838254
98.2061323634836
98.3482055281335
98.4112612323374
98.2832915984369
98.0843653241189
98.0540887899642
97.9361283305657
97.9214018353209
98.220956095154
98.3806088053422
98.35241465431
98.1695186526728
98.2618863461594
98.2629245723648
98.0477749803299
98.3022112322431
98.19704531606
98.0410238726499
98.2375226877311
98.3140740592313
98.1120644014371
98.212538527468
97.9716601086153
97.9879092695575
98.1896308326261
98.0015644069433
98.2245191095167
98.0768012756834
98.2542578378513
98.3154372410672
98.2663420356921
97.8826784437966
97.8060561458212
97.8670751225524
98.1877425832271
98.4084110151081
98.4329157766511
98.3136384901745
98.1228577769601
97.9502943249015
97.9329672614915
98.0289220397838
98.2571116695258
98.2664641417104
98.3406437956985
98.2200120621396
98.3460809986051
98.4508555938369
98.0839455015026
97.8691511285061
98.0856918710561
97.8495096389744
98.0346623298808
98.298199685335
98.3765271826419
98.3652819286676
98.0783540805195
98.1953424697403
98.1438300350245
97.771586170279
98.0343082183871
98.1661622608238
98.0928028582097
98.2709672860836
98.25559986364
98.2805416718615
98.3282661174352
98.3262325945931
98.2317831834179
98.1803743850683
98.2104710492755
98.1258335069491
98.2096472093273
98.2525086404057
98.3501026231887
98.3222703151764
98.0828322846399
98.0714897874656
98.1061141529908
98.1561055120886
98.2534004399832
98.1118830387607
98.1184626748529
97.955869472143
98.1569523494664
98.2449070668209
98.1816459082579
97.7606682878707
97.8876566389193
98.0337767734701
97.8752851848732
98.1502631581842
98.0252052337563
98.3608094646045
98.1534508029391
97.9683910345785
97.638089046007
97.755869806162
98.1484776721909
98.1336055268501
98.112489225138
98.038044782365
97.9997399391094
98.0707955177355
98.0844704114302
98.3005103651109
98.215937122876
98.1061046190108
98.1245154762397
98.1730623700482
98.1591220552056
98.1973419086866
98.1872719105363
98.204282313035
98.1945357279425
98.0901432524852
98.0674322438418
98.2697468658994
98.343656011297
98.2694349525411
98.040641260734
98.1596690798572
98.2457038902964
98.412961727937
98.2997048629312
98.2629487336533
98.0765451866408
97.6730505186747
97.8656836485661
97.8939383685042
97.9323780464927
97.9641968209711
98.1016976290837
98.2530156419923
98.2574660713058
98.2494943508586
98.2192255262701
97.9646016078969
98.0008682989639
98.0230657656728
97.9370755880303
97.932266293857
97.6126664714615
97.7222234459942
97.9132368626057
98.0425948446313
98.0822692387958
98.1269160286213
98.2354210911145
98.0987140121727
98.0645423816434
97.7602057278627
97.5604471865163
97.8473918790657
97.9962524994389
98.1653557000151
98.1009861472004
97.9452187282417
97.7314330817809
97.8371094765902
97.9347823160263
98.0902111352701
98.0380010474883
97.9434115816463
97.9778430233968
98.0812393910503
98.0640857677843
98.1110185119216
98.1901288818925
98.1259387368336
98.0572834486231
98.0290250044204
98.0873120206381
98.1376145878737
97.9768379753067
97.789024135787
97.8279619482864
98.0406090687087
98.1785821555331
98.2940073129593
98.2653519662695
98.2235610841529
98.1097615713365
98.2025390844157
98.2361670726383
98.0089489693094
97.7667396404118
97.8547662755488
98.09064756477
98.2983883157123
98.3465839264697
98.2466817158324
98.1999621289401
98.0205346719776
97.8949383731924
98.0224919537062
98.1690811055456
98.0462614526007
97.9483685483441
98.0490070217906
98.1593591682454
98.2072387661395
98.2251883495482
98.1987912297988
98.2190799710867
98.3050798858771
98.1273377047052
98.0656383347238
98.14515745318
98.0927488375223
98.0394798866826
98.1240535724186
98.236496172804
98.3873738107837
98.44186011475
98.2525361879586
98.1307344099166
98.3151925622191
98.2829810929344
98.0879030296247
98.0331388292545
98.199028240242
98.1768017738957
98.094186392896
98.1317423629386
98.2844338160328
98.2791644749791
98.2640917931947
98.4370169861596
98.460199119601
98.2842738943494
98.2254444745046
98.2217488230227
98.2647368875812
98.2660256441775
98.243245627434
98.1692056828102
98.0409104405489
98.0408504829405
98.2107991842391
98.3301387796685
98.369014898123
98.3371991636453
98.3037456755167
98.3158458720777
98.3550140755882
98.2182451959244
98.1330882406248
98.2418083722041
98.1652452379722
97.9840123725889
97.924852833543
97.89903751025
97.9743064573862
98.039091909935
98.0228365847051
98.0030739216968
98.0465847266406
97.9703490073766
97.919529930797
97.9450139511773
97.95494251071
97.8905348629641
97.8439528373471
97.9290716274186
97.9988082513665
97.9044560739372
97.8425717033079
97.9197652584608
98.0801293187086
98.0532830751351
98.0415563808216
98.0220470489495
97.971258696949
97.9936584259304
98.1259802325776
98.189636825179
98.0929932476263
98.0393902918127
98.2147197438803
98.2469996181349
98.2191258844736
98.2215626486082
98.2593010362682
98.3197464679333
98.2988148362589
98.2778890661606
98.2638555835497
98.2181007294499
98.2159314307349
98.2076369601421
98.1318869393807
98.0658759687509
98.1326264814859
98.1793188829237
98.1525338339301
98.1827752644491
98.3620414149443
98.3867549398572
98.188370151528
98.1225324803177
98.229055861591
98.1537677949292
98.1113299645609
98.1665058477941
98.1980492618732
98.1311737616585
98.1618871532517
98.144894808955
98.0073945457014
97.9916790467735
98.0640859111998
98.1413749100697
98.1300296390963
98.1276524514446
98.2072203834853
98.2111313496182
98.2126608874418
98.1446662055007
98.1771683567583
98.2615604069518
98.2292792771098
98.0991715583877
98.0819610077997
98.1076191646309
98.0789762630513
98.0595732433172
98.1484077735024
98.1922761656494
98.1065835743635
98.0662630307495
98.0800144888113
98.0812101635135
97.9969407084549
97.9930425538042
98.1138352994583
98.1024772242866
98.1155826049827
98.1615780617132
98.1318201814034
98.0489265714428
98.0049265842471
98.0363706703883
98.0988432238193
98.0820971649954
98.1272178416861
98.0253749489505
97.9169114436724
98.0134334997759
98.097438192931
98.1572258642136
98.2011120921182
98.1586924097182
98.1131900082278
98.0882454165148
98.0909509084851
98.0819160239617
98.1042609969121
98.0603194797569
98.0043316349041
98.0480052541485
98.0866161082853
98.0560755444135
98.0393646211176
98.0206070581214
97.9985182841144
98.0251441512847
98.0306711633991
98.028756068794
98.0526966474974
98.0578137522989
98.0502000846797
98.0007999531855
97.9769616666468
98.0149626469594
98.0183866103826
98.0378536510227
98.147352745258
98.1023792618657
98.053108953806
98.0237666103013
97.9655285696112
97.9306754200161
97.9485750277574
97.9767927538405
97.99233253264
97.9681621903596
98.0001633731364
98.0511184897958
97.9909894695667
97.9821991314873
98.1002535622892
98.0951546132071
98.025648096593
97.9750093401351
97.9104757668026
97.9369872448904
98.0270763098186
98.0472709961626
98.0988434233009
98.0957424560803
98.009804172354
97.981045292435
98.0015990159096
97.9591693623394
97.9454841267874
97.9846442534083
98.0171279340627
97.9760464558055
97.9730898713452
97.9846355193024
97.9720970907441
97.9948563863147
97.9848683519428
97.8923835645161
97.8153302219589
97.8223978719909
97.8847802034907
97.8813168655705
97.8442627604761
97.8498056738704
97.9047546367644
97.9433177120224
97.9339379629131
97.8936687756441
97.8338255198553
97.8008457264293
97.830156021295
97.9126314851329
97.9038537492779
97.8576043186385
97.7799811143002
97.6879599628019
97.7158484759271
97.7317678272519
97.7028815239638
97.7135358060478
97.8060038250985
97.8309683699489
97.7787306887325
97.7142650509696
97.6818467202723
97.6943651728527
97.7285445089945
97.6743511628781
97.6588753136697
97.6766656174527
97.6549542015065
97.6176353751674
97.5807973422661
97.5964780338116
97.6319225380736
97.6025378247096
97.5841646987144
97.5297073468585
97.532150092812
97.5822981738461
97.6019750343556
97.5784635703935
97.5479179350686
97.5579940598672
97.5318928348664
97.4851730691445
97.512298515359
97.5290553207425
97.5980854860067
97.6885736349483
97.7202045892315
97.7278085153186
97.7383346971352
97.791486097093
97.7738376870923
97.7633582904757
97.7742347988888
97.7396273654494
97.7460143820081
97.7424613044116
97.7563646989024
97.7270282864418
97.6683278803766
97.6474622562104
97.5952072550959
97.4812919970889
97.4393228579777
97.4500242362945
97.4573226924455
97.4512975633773
97.3873646548519
97.334285745298
97.3378546457696
97.3264530056349
97.2998884250456
97.2817399463514
97.2268332142835
97.120478062697
97.1285621599165
97.1686099155174
97.1728146585346
97.159299309255
97.0564716632118
96.9358092594667
96.836308515776
96.7415935315692
96.6668828135993
96.5407040442819
96.4226868756368
96.3986358847858
96.3681921211055
96.2671102205542
96.2344516157481
96.2390041214222
96.2343443347158
96.3387032485781
96.3846418278757
96.3762678496839
96.4712237397048
96.5747002110913
96.6625286231027
96.7076298427262
96.794230228921
96.8799757377911
96.9367528446349
96.9798236169655
97.0745152732887
97.1697422303339
97.2011145569964
97.2304647134694
97.2876627115751
97.3345301875373
97.3898377928204
97.3634785193683
97.3495245408822
97.3530450345393
97.3107840373996
97.281350318696
97.2972630736084
97.2820595550054
97.2398726642068
97.1910649083033
97.0741552376018
97.0018290141073
96.9763452715428
96.9342582012136
96.9668388175936
97.037941658471
97.0560841804927
97.0368840549295
97.0779775192665
97.1229850161639
97.1445715277586
97.1980288097172
97.2035316887082
97.1351269293149
97.1060308293896
97.1214112082301
97.1841819946791
97.1967078701483
97.1845691154136
97.1726674988492
97.1887960772654
97.2481770109591
97.2724183116692
97.2525168410873
97.2637125834271
97.2911997671441
97.323914902671
97.34510473244
97.3359974704938
97.3099205334894
97.2938229111979
97.320556184556
97.3541608780231
97.3271047586749
97.3478047216239
97.4134819177085
97.424967380305
97.4283981731435
97.4603304548777
97.4500894944533
97.4689972216682
97.4978875806985
97.4680855960911
97.4786380896583
97.5539957393514
97.5690281387125
97.5290518118033
97.4810952385647
97.4767936321889
97.5046912924462
97.4819577629683
97.4376714596931
97.4399681945151
97.4580995325948
97.4508985108533
97.45562576271
97.4893198455767
97.4765323898849
97.4754295390943
97.5046218596596
97.5112450633911
97.4874600778422
97.513801385016
97.5200218835046
97.5149817868121
97.5315910868628
97.5650485455117
97.5636434521157
97.58044811376
97.5956127383902
97.555889047488
97.534196761059
97.5601568760139
97.5624946624128
97.5572891853766
97.5673520050578
97.5717634998384
97.5948784993783
97.6082055108695
97.5851080655149
97.5730628781313
97.5542812994481
97.5276125940002
97.5200589171614
97.5158499658023
97.5197262401946
97.5759715069248
97.5959418735049
97.5586752193602
97.5397120899423
97.5512883893742
97.5817719701878
97.6210541967143
97.5878267764407
97.5470733247516
97.551923282723
97.5551676055027
97.5571338115246
97.5884098318578
97.6135551915968
97.5911847149655
97.5924389815795
97.6346193214438
97.6193819541966
97.583941536814
97.6007873259077
97.6315992692532
97.644658381862
97.6389849545346
97.6270629133942
97.6153667573864
97.5939091987683
97.5959364576829
97.6153429624998
97.6357304248889
97.6443954415952
97.6546170677958
97.6635113526202
97.6573816071989
97.662118033499
97.6822525328205
97.660884701018
97.6303999928364
97.6085025899448
97.5949079250177
97.5930255447645
97.5963077100151
97.5815836681789
97.571438222646
97.5893105068446
97.6104579689197
97.6222386907681
97.5917775197667
97.558961530221
97.5480136729663
97.5326784333248
97.5326686485691
97.5288090210821
97.5097655388588
97.4922263694762
97.5041086389045
97.523594820847
97.4949708250184
97.4831345978234
97.5190461478601
97.5436424391457
97.5622914210963
97.5817491125733
97.5638212293723
97.5591975831509
97.5649711646373
97.5106837743466
97.4934320690285
97.5326918647145
97.5192851396799
97.5271734170559
97.5758241067742
97.597183664325
97.5826502324422
97.5456071593822
97.5211691778936
97.557925012442
97.618417098888
97.6410255807108
97.6429980226975
97.6332984133853
97.6651968057956
97.700420634749
97.6747057155166
97.6275378010816
97.6239610512186
97.6401196541951
97.6458975510864
97.6604364452813
97.6477094319132
97.6218028889742
97.6525519918619
97.6678394718233
97.5697663865236
97.5363593061681
97.6994945797898
97.8106616191888
97.7192162503491
97.6463900827291
97.6571785775171
97.6633123967075
97.7012582230315
97.7353350204801
97.7282548870428
97.7259990231053
97.7036979553879
97.6392610310371
97.6883424459064
97.7765496037801
97.7847845622646
97.7731067881661
97.6878508141635
97.601629337745
97.6723190218241
97.7267941330804
97.7263342353336
97.7721137548339
97.774733423316
97.7316435743636
97.7365186974541
97.7645438940101
97.7450923266791
97.7070828877896
97.7535024137073
97.7837780957241
97.7807925340921
97.7567504177376
97.692682650057
97.6653275856414
97.6678942999681
97.713347702177
97.795932076618
97.8323052818619
97.7917918648231
97.7332537868505
97.6924271804112
97.6759636301396
97.6902136028403
97.7111747867889
97.7700358373377
97.7847762247464
97.7162714633245
97.7192871125051
97.7488678952392
97.7093293681128
97.7257317330122
97.7916616706159
97.7830787761885
97.7546705924664
97.7291246547884
97.7398090963972
97.7877532791767
97.8477963406915
97.8990737182435
97.8231816761958
97.7614290881935
97.8014932735768
97.8058593063469
97.7542169044433
97.7323938651009
97.8155017975468
97.9006674579261
97.8615942327263
97.7694727862816
97.7479011217531
97.7873843166484
97.8064220253768
97.794209206118
97.7384622883142
97.725869711689
97.787470885204
97.7676635403497
97.7098095967325
97.755089274808
97.7560852041351
97.7144530221
97.7978433372917
97.8125589257236
97.7538949448856
97.7429560977153
97.7197947853671
97.7142987390381
97.7672949243329
97.7692386884093
97.7164823738703
97.7281664749319
97.7574390836206
97.7614623405681
97.7738960647017
97.7619578907335
97.7084830195856
97.6600513044165
97.6684213416912
97.7052796637814
97.7154714231711
97.7231345144043
97.7591900584907
97.7376460737152
97.6751418451963
97.6403707757738
97.6389699810139
97.6472841286614
97.7346444478861
97.841409951226
97.7674848866327
97.5539358279614
97.6764841633569
97.8515770886935
97.8475593837208
97.9088401542008
97.909772828839
97.8840754095348
97.877891741831
97.8895488260934
97.8614948509756
97.8176116824618
97.794783678909
97.6460655853062
97.5399223440447
97.6156842144685
97.6702439832885
97.7134803517667
97.8274665200788
97.8981261087726
97.7937277968427
97.7395624297389
97.831140213785
97.7582661879547
97.6692718960314
97.5648126912814
97.4212933658686
97.4524940250823
97.4967627661309
97.5509934617813
97.5733503934025
97.5910342532798
97.6509205524853
97.6913966222566
97.6718544415376
97.6730421022751
97.6778444580439
97.6590620834051
97.6708339871886
97.7037300085745
97.6726727733968
97.615471570794
97.592552725974
97.6377278615385
97.6775849175899
97.6243944644579
97.6256730955158
97.6594063698862
97.5596855910329
97.5515493549475
97.6922653390735
97.796890939773
97.8958300351609
97.9436132496012
97.9436502645576
97.9696177898719
97.9583830555536
97.9917553875161
98.0196431878954
97.9989092270025
98.0194078723554
98.0179165598347
97.9460169131089
97.9689200124846
98.1978064045765
98.2274357367057
98.0919063327316
98.2089722761776
98.2609275710758
98.1753070350044
98.1596973057027
98.1334711782526
98.0802708035222
98.1214189877787
98.1701653357163
98.2183320544853
98.3456980439759
98.3854885485896
98.3604822061024
98.38532857521
98.3525796135258
98.2742371516286
98.4000050653255
98.6091482043729
98.5040033661113
98.2664093535326
98.2445477603478
98.4587354333543
98.6097449862256
98.4086694136801
98.2153822821103
98.3410108161508
98.4594124750754
98.4735483236668
98.7382860133625
98.9654084311525
98.8349578023261
98.7724415831985
98.6710035475873
98.6693713477675
98.7595413243287
98.5097810315922
98.6202421164997
99.0702199570498
99.0762192628989
99.0805596295982
99.0649144871937
98.7955700679928
98.5524283076571
98.377837991732
98.4393360124683
98.8440815365129
99.0390149644536
98.9905414950921
99.156483283074
99.4977755246785
99.4290601311008
99.0297100845772
98.9143590555596
98.8461346541147
98.794136624687
98.6817740220965
98.4713627077299
98.3962177977649
98.6207369713177
98.8602488988148
98.8269585279934
98.7135517028021
98.6261051544223
98.6111211046238
98.6135852831183
98.462499741707
98.2977772181591
98.2406629858658
98.2431727243504
98.2488626274525
98.2020502822427
98.1056602132505
98.1655326519557
98.187054809623
98.0541231623533
97.9480107923064
97.9079869453066
98.0193650186968
98.1877104660316
98.1783857801579
98.1711771785205
98.2108183270522
98.2054422537726
98.302448384936
98.3795486902765
98.399342979612
98.4024158668321
98.2893491689597
98.1614381231989
98.10742431722
98.2123389213131
98.28121855061
98.2422324201422
98.1824531058239
98.2153981177461
98.3406157478681
98.4802026232138
98.5121426318344
98.5319916001352
98.6168055156416
98.5285460090626
98.3722737402735
98.4267130700108
98.4979787886441
98.6382138724113
98.6951915422865
98.73683681432
98.9199597832115
99.0671003052806
98.9224814537909
98.8356637723967
99.0149179821974
99.1967808260007
99.2307644071638
99.1685859375347
99.352499650357
99.5755344849912
99.2983071050352
99.0495630011666
99.1612835289511
99.3715674926717
99.0248301064519
98.6455075141089
99.0384257385972
99.4399613165778
99.0518868726351
98.6060530153442
98.8207113387636
99.346920248332
99.4389501254432
99.3239280075082
99.2594707838624
99.1156311685218
98.938979757038
98.9903617377674
99.0010434665218
98.9786083424738
98.811194750357
98.7835258734723
98.9387872870069
98.8547916812679
98.8781487121603
98.9040524087292
98.7372280865028
98.8236056886848
99.0690022458603
99.2739887365393
99.3794889059281
99.2920126254719
99.0201150977062
99.1067188849834
99.267076238636
99.1252277707091
99.0577442760324
99.0209555891067
98.7663989675939
98.5796745503832
98.5295424231771
98.5132460840986
98.4380814542633
98.4412097490339
98.4092055689585
98.3654043437901
98.3004295993052
98.1961914452105
98.2343203069623
98.4498666772026
98.5474362911314
98.5194079786373
98.364237983806
98.4432990325596
98.5597484890927
98.6337230800323
98.5632707685522
98.4739709138275
98.3207977223872
98.3419895489418
98.2819713401611
98.2870543697693
98.4883601967514
98.5034493149404
98.4805868785881
98.4819009897141
98.4528506191876
98.4912792757528
98.5337641739731
98.6208100244316
98.6309703432927
98.583392971051
98.5460767241933
98.5616264334137
98.6364912021322
98.6300283555135
98.5454082494005
98.5920266910329
98.5632174114186
98.5799002271524
98.558791972865
98.5972719501115
98.6316809291687
98.732009131574
98.7612394711445
98.686679783117
98.547714477377
98.4105148167534
98.5156949093938
98.6856060987552
98.645570042173
98.6171670843251
98.5588804782758
98.4894787266783
98.4690007830057
98.4964271352452
98.5033860202749
98.5869480735692
98.4971631572681
98.4354682640723
98.2382177595898
98.2784310937979
98.3912352794586
98.4025330393098
98.3812068826834
98.3848865334446
98.2836372994974
98.2344670688599
98.1293835510323
98.2615489446155
98.2079188745115
98.1887308171455
98.2384062404508
98.2373693527057
98.3044852538389
98.3655523024739
98.3561294041921
98.289960157407
98.1809935561456
98.1773941748884
98.2148590813874
98.2534241051236
98.1874004329532
98.1335700401699
98.1443521728656
98.2066388199455
98.2049607057579
98.1657330045413
98.0120309076434
98.2185362865167
98.3783549785957
98.3469893382352
98.2788328082796
98.3721981929719
98.3449249990643
98.3397339430711
98.3499993186488
98.2205721786436
98.208847963715
98.0646924574276
98.2724731587825
98.2739995726034
98.3079102756317
98.2865342180502
98.1655843891474
98.0962261356763
98.1433513464437
97.9803651926511
97.883013989409
97.6815226117
97.1895805108352
96.7872076360429
96.2564047313452
95.6129184999155
94.627173731906
93.5864343616781
92.3850807704513
90.9202923322492
89.9997109015102
88.4429710062249
86.8953741571231
85.8291108209898
84.628309882255
83.5683152743972
82.4643689507109
81.2430705741943
80.1581638279278
79.1152150213533
77.5213369505635
76.4239800599109
75.8786248630769
75.7831528905225
75.8499239641917
76.1050589769918
76.5211723095225
77.264401613238
78.1329293836466
78.7490958000743
80.1504484291021
81.2286950108867
82.2111702689114
83.6753447067265
84.100847973131
84.5237306289708
84.9309988596653
84.9303935789799
84.9599239488806
86.6545123607095
87.189618238943
87.3635256984535
87.3874449856365
87.7815775835165
88.7006578368878
88.7184304185803
89.009126432719
90.089394902701
90.4250163569026
90.2357047766158
90.6849599174518
91.4512333621822
91.5912251371097
91.2650983516931
90.3302614856511
91.2564638363644
93.0813640234936
92.6531638450742
92.0428843497583
92.9073845827702
93.4528475477641
93.3865414925775
93.2099246294147
92.897423112686
92.7271765694901
93.8473177488214
94.2821429454337
94.0290394643158
93.8152745060423
93.9880556283743
94.0228500801976
94.1039332448946
94.4626566060406
94.2865757147474
93.8901749590059
94.2144190004161
94.5502334355293
94.3798095354108
94.3700776345697
94.491579486634
94.7335695471905
94.8623188986297
95.0349260042364
95.2098837022364
95.3650166398289
95.4130177686627
95.49331616543
95.5878167163434
95.6381586213555
95.6278941075715
95.6187419173269
95.4695994656193
95.2579241650458
94.9351350943262
94.520218850987
94.0324473293033
93.8998709684439
94.7698785693956
95.0972672354843
94.9033582806263
95.1543231712836
95.7291013016317
95.7749953834796
95.8279101618864
95.4651419457735
94.5578139310763
95.5818448521464
96.3495847596316
96.2138324765654
96.2878737453333
96.0970549937247
96.290487807919
96.2611052972232
95.9885555421379
95.8474009394342
95.5931626965889
96.1028023534318
96.717106024347
96.5435055320247
96.1619415181546
96.5075506496029
96.5096639837814
96.2659219629075
96.095360843931
96.1976983043617
95.9408300661245
96.0777432826264
96.4226285767033
96.3127659578983
96.614090139662
96.5330885953305
96.0689238786256
95.3025463959636
93.9074277344187
93.4270588007966
94.0381676542743
94.5058222852094
94.9976069510084
95.5625875807469
96.1796914478623
96.7070465569562
96.7786437971342
96.4379393350955
96.4478931592682
96.6161508874213
96.6681908689384
96.4529944469814
96.1375694214915
96.0021649273733
95.6511524112756
95.1633490370278
94.6839690542473
94.2914966496993
94.6775413680364
94.8370504341719
94.8637624758543
94.911997641377
95.1742475393487
94.933753063452
94.4569396285983
94.0205417753801
94.4773884623005
94.6010259563635
94.5374095061733
94.5194218329968
94.5574601089358
94.8338865574795
94.9737287579604
95.0111891527058
95.0582944467
94.976984903772
94.9753439589967
95.6240539371426
95.9197220343118
96.0675345399621
96.2971876465384
96.6249589890943
96.6922816176912
96.5960630125185
96.5369328489976
95.9915167187834
95.2832458283262
94.3809494555043
92.8930020237107
91.0360550741664
89.3421254582645
88.5294065882483
88.5890310645305
89.5019602878633
90.847631143688
91.8183985063799
92.4721267243082
93.2475964730107
93.6560227488321
94.1212245075871
94.5110489631265
94.5811311620072
94.4770333426221
94.5258536499977
94.7308195336692
94.7663791606048
94.7950452423354
94.7323380726512
94.6824534084876
94.4597353856201
94.3386932446802
94.3917217270306
94.3968521591211
94.6021710689869
94.9326171790812
95.1101355397662
95.4336979109414
95.853562632213
96.0331868226997
96.0496260873987
95.9468575759793
95.7317598925344
95.2925174173508
94.4858354050176
93.2562778951761
91.5572019883294
89.7103510923456
88.1526704939226
87.3633651501801
87.9022775391451
89.3698779229938
91.1627422476157
92.8218051116644
94.1193454853409
94.9587435603552
95.4377273104192
95.6563559981566
95.6969288400343
95.5877446472708
95.4064390658712
95.2574777235168
95.0552017769297
94.7765373092345
94.5511802406822
94.2884910658338
93.948961152309
93.6442323140882
93.341013826962
92.9847143161083
92.5107407736192
91.9438258114816
91.2804167035203
90.5612309738376
89.8543550567314
89.1678883565398
88.5011130662244
87.8534111083186
87.2448770072512
86.6232410767471
85.9807625647791
85.3285194647322
84.6823346188997
84.0461237617775
83.4080873245474
82.752782569948
82.085186981399
81.3873800407776
80.6650912701866
79.9760877524348
79.3526799286688
78.7774353263211
78.2867644492757
77.9071809585845
77.5662336260263
77.1890867752046
76.773561564048
76.3450336821832
75.9013206070775
75.4698753797307
75.0629310245152
74.7289061234881
74.5056308440734
74.4071754832265
74.4468399645847
74.6106605309074
74.8956378061469
75.2908421632216
75.7521172840331
76.2283014031205
76.6975630401645
77.1657125401044
77.6459508852554
78.1831690721297
78.8013525098129
79.4752628148713
80.1620867992259
80.8362243626472
81.5048433572589
82.1412756592571
82.771032756925
83.405640750082
84.0247023060905
84.6362754419085
85.2500172144895
85.8729558210988
86.4930621394771
87.0845719304558
87.6336523733366
88.1346411414868
88.5882474766051
88.9970827376769
89.3341734563584
89.5680504739706
89.7084891826689
89.768528840414
89.7962327407998
89.8429752898381
89.975768109942
90.2771048265837
90.7482896571638
91.2811752290347
91.7797463916452
92.1837962472279
92.4589668616272
92.6314798244857
92.7369607810855
92.7926374759257
92.7616084729164
92.625780636887
92.4179455396337
92.1322600236926
91.7592876626268
91.2972555338738
90.7436838955368
90.080914606939
89.261374094119
88.2764212459685
87.1498621572835
85.8799869813509
84.5716756514075
83.364621476522
82.3291229187765
81.4523797053305
80.7180374119426
80.0880593356798
79.5615912250383
79.1945675812978
79.0129262338698
79.0011222301834
79.0651175026043
79.0714819920381
78.9756137701114
78.736585696537
78.2972386050302
77.7239237923424
77.1323687213465
76.5635318145599
76.0729209746917
75.6760945212104
75.3807149807747
75.1900512235655
75.0923040468353
75.0656659259663
75.0911142154622
75.1713055061818
75.296246289398
75.4757312457383
75.7725563307241
76.1776797382649
76.6594755180373
77.2193862141846
77.8636968065055
78.5151539417224
79.1263379304991
79.7074704503123
80.2810200648876
80.8363983574845
81.3493221328687
81.8359343916435
82.2748744492691
82.6205850382868
82.8934613294754
83.0917687036732
83.2027134348652
83.2566420065305
83.2806622435931
83.3008933595825
83.3589200826521
83.4808895607528
83.6776399165242
83.9473955885535
84.2681713409537
84.6560099879097
85.1157550588342
85.561469693786
85.6952889894522
85.024419294333
83.4576270082597
81.6603495049343
80.1440920995875
78.7991191198021
77.7562916025863
77.5550858291816
78.3228227365926
79.5609846208184
80.7385838250577
81.6958557446536
82.456259349066
83.0504623419693
83.5536631181516
83.9800178714366
84.3260896292947
84.649514867771
84.9396520828069
85.1574426543181
85.3227549127204
85.4318071414951
85.5541180032519
85.6883469850033
85.7739477042388
85.8070495207746
85.73198853085
85.4870226956385
85.1243699915204
84.6743764843059
84.2565256269456
84.0393500535208
84.0338659917089
84.1974217091756
84.4855692853169
84.8095138811261
85.1577230113297
85.4923348772606
85.7874872825689
86.0547604266905
86.3364526855243
86.5897582247847
86.802857789451
86.9830185293067
87.1735019600608
87.3541862122342
87.5298925399149
87.6930492512548
87.8089393203295
87.9161558409295
88.0157753892319
88.1425740011283
88.2611065679113
88.3646313101852
88.5294704054702
88.6799044290953
88.7671520500162
88.888745291927
89.0407269090977
89.1195899942828
89.1940017934295
89.2762585883058
89.3242188448484
89.3226559230929
89.2659358180733
89.1503418049626
89.000301701802
88.8419350775229
88.6879954096616
88.6085732954613
88.5694389614704
88.5901512030621
88.683859244768
88.7941516311024
88.909242115818
88.9973660096466
89.0158538985726
88.899281010855
88.613644495665
88.152262788218
87.4826137739181
86.6541524548087
85.5772597945071
83.8903982278416
82.2597101737764
82.0916895065463
83.1695818896205
84.3197273884502
85.1277775492131
85.6403363402466
85.9584765845458
86.1462105441325
86.1858674913737
86.1487568473578
86.0776555443184
85.9290376388169
85.6724738665541
85.3573366336311
85.1892751721403
85.2736684782042
85.5285697424919
85.8328349658127
86.1123594966851
86.4226169681154
86.7298850808832
87.0075093398832
87.31047591931
87.5700623927756
87.7597153314366
88.0093025378167
88.2700139868143
88.437178620579
88.5612788506236
88.6913862532059
88.7764566526413
88.8311920482336
88.9326383901938
89.0310778988059
89.1056708546241
89.2041271761782
89.3725720034976
89.4086070079013
89.4128058356011
89.4694121119194
89.4029983874989
88.9479779611268
88.2750903478592
87.9359052017222
88.1518528439784
88.6174938714956
89.0437958565962
89.4694044388768
89.8249217973209
90.1420002855033
90.4315298585296
90.6840482787223
90.9764940055056
91.279298255839
91.586432417597
91.8832503808604
92.0625827318844
92.2188359426424
92.544016059185
92.8964967584259
93.0951761576513
93.360180307494
93.759101517869
94.068545024215
94.2844397065244
94.5135722276727
94.7590544097044
94.8991207599206
94.7857359474234
94.444692058166
93.7149119285316
92.392165700873
90.3503667691243
87.8883887209852
85.3442570889326
82.7666369020577
80.3206331912143
77.8184495835666
75.2148765913849
72.9902824650126
71.6561946390228
71.333320966309
71.9111139898679
72.6936143627185
73.466676166491
74.295143369656
75.0250070748938
75.644203355107
76.2463386533468
76.8661358228748
77.5119057126617
78.0451982808359
78.5822082478488
79.3539737517617
80.2019667700393
80.8417121535805
81.4171190709544
81.7845978868943
82.0573995859147
82.4888647098176
82.8805500731136
82.9751263161251
83.1307660613597
83.3077862624831
83.4128629455106
83.596457127203
83.8636137931354
84.0903997401383
84.3803827725868
84.582965839884
85.0364224605462
85.0392429157371
84.9646179349235
85.2554340950892
85.3368759911855
85.4555166250111
85.3716889340325
85.3277052845198
85.4074399020138
85.7225447218532
