1798
3999.43349933624
650.420452594757
1
128
4
97.2314440998959
97.1552660665042
97.051233733614
97.0152549892629
97.1676906101966
97.2709595639035
97.2476746655334
97.2129523655708
97.1981281305654
97.1731389026996
97.120479992835
97.1419751581069
97.1802674576554
97.1794253794543
97.1164482281255
97.1208346507378
97.1653531800519
97.2194000820831
97.1962745108696
97.1288699048857
97.0919176668508
97.0579328788589
97.1270158735714
97.2208602129926
97.1866924450249
97.0934077430052
97.0397393928886
97.0636391834143
96.9917289863796
96.9982616032665
97.1266303820773
97.123579616238
97.1817715853993
97.129217685528
96.8758733312295
96.8119613282224
96.9377993663361
97.1004024069328
97.0213053101951
97.0907090248962
96.9801918226318
96.9079186981589
96.8069728117987
96.8369130078176
96.9609678398192
97.0515481401421
97.2120432361
97.1902499444368
96.9038900069107
96.6292657821595
96.6883956170643
96.6143093135034
96.6736832361025
97.025158670508
97.2487634859296
97.1921042665893
96.8885437617076
96.9774073647367
97.0463665029187
96.8665020413153
97.1412163659072
96.9077142860971
96.7046732795638
96.9954694342183
97.1404280895869
96.9032963696829
97.0434302033976
96.6612032610941
96.6648758218793
96.9594950121594
96.7356702397233
96.9196231455467
96.7395391917337
96.9999662203755
97.0695655854441
97.0178328760231
96.5055333731313
96.447870341307
96.5802928897951
97.0749110636517
97.3737035975624
97.2873157830467
97.051269571924
96.7474907941281
96.4538856612746
96.5417278962524
96.6972338464691
96.9959082391925
97.0476260981645
97.1466140129264
96.9359627790192
97.0821082496174
97.2432920836745
96.8691933754627
96.6055839381451
96.7465937456502
96.3825624278741
96.7675862263311
97.0748406415647
97.1898120254459
97.2542031905644
96.8820701320193
96.946902763932
96.8352053263512
96.5058145777413
96.9209712798232
96.9052350514439
96.7951568454066
96.9549029336063
97.0432727226769
97.1505105634694
97.097553491464
97.1198106669633
97.0504074653479
97.0295409402584
97.0334421033098
96.849644407979
96.9780796783197
97.0509386396353
97.1204443675232
97.0553137895289
96.8919324766052
96.978339948097
96.8874980935675
96.9482615092738
97.1059186156966
96.9168204368856
96.9757914040914
96.7623050306599
96.8690707626775
96.8194621576577
96.8655218008174
96.5389600846095
96.6579384096364
96.5486919592942
96.3809319560035
96.9200906989486
96.7370794125542
97.125001316127
96.8129919617335
96.5555943066191
96.1735276950581
96.4625375681557
96.9635974937866
96.932560927045
96.954490412581
96.7871639657983
96.6396441709325
96.7970837453748
96.8231162081331
97.0916870310224
96.9629670663203
96.8490625706698
96.8781249476081
96.8890826586429
96.9467219539333
97.1329052825929
97.0743883303222
97.0159432354628
96.9780799038977
96.95241184605
97.0032174391058
97.1217747644644
97.0914915422032
96.8770377436855
96.4879603665612
96.6795377982697
96.8411499724208
97.2337988620499
97.0868633476711
96.9678670786787
96.708202621042
96.2402295986451
96.5605318757762
96.5825068281281
96.7225060186052
96.7502023626932
96.8231257455694
97.0281431944577
97.0241166802854
96.9124635976212
96.8958050974646
96.6348166127059
96.739909402541
96.7110275162853
96.5485985822783
96.4340747367313
95.8462913376882
96.2005527206611
96.645882343895
96.7987844743099
96.7825890678096
96.7429112081175
96.7377453292418
96.5981347890258
96.6796355514921
96.3363784606274
96.091367708642
96.4005441040001
96.6423335520437
96.9183476765956
96.7614867349727
96.5898322028019
96.425860122954
96.5060358869665
96.4734402466594
96.5864779391927
96.5607595353405
96.5128039480755
96.6032592814045
96.7185160156116
96.8072672731956
96.9568484976164
96.8950319327879
96.6871117793011
96.5908478612531
96.6682619443267
96.7946228397795
96.7916001264476
96.5918141847407
96.385130024197
96.4515100494204
96.7519231642567
96.8787020754617
96.93013842144
96.9008863891324
96.9406891090281
96.9631359057969
97.0796859955579
96.9703946080451
96.6068935915857
96.3417360633754
96.5240381781284
96.8071041552282
96.9073623481784
96.7969643607821
96.8309239994019
96.9732775398814
96.7455830178513
96.6443636858283
96.736334756315
96.73073256733
96.6695661479716
96.6825213624602
96.7935473208514
96.883447201475
96.8767518972473
96.8858380134917
96.9522370905168
96.9165856236786
96.9839309781224
96.8745100816005
96.751425790101
96.7565481872646
96.8052876957053
96.6879828875863
96.7824484075153
96.9033572717556
96.9591099766791
97.0860655884999
97.0287185157087
96.8721458986565
97.0305015101981
97.096379139714
96.9150014003799
96.792783594926
96.8912968751535
96.8881043458228
96.8511385752836
96.953917282196
97.0646793736956
97.0565761129008
97.0448298885079
97.1725402993039
97.3022128877933
97.1638040793089
97.0404890842933
96.9836416198835
97.0355265872632
97.0720622893787
97.0619070171546
96.9661458161723
96.771479394912
96.72682960103
96.9749783339781
97.1350779915488
97.2343528533506
97.2037165796707
97.149526550856
97.1118859834775
96.9961055871341
96.9067116014286
96.9474903877142
97.0288724330957
96.967717749696
96.8338826468712
96.7994819210124
96.7106389255865
96.690553963585
96.7283503204245
96.6721396439149
96.5089036153339
96.5751200016303
96.6163015171177
96.5588258541856
96.5328891867526
96.5059258794854
96.4980350954828
96.6307320319505
96.6868881028601
96.6094726623294
96.5389768157136
96.5528589956138
96.6015776005831
96.7803021336172
96.7576563635242
96.8116936678055
96.7939681857338
96.5843785357885
96.6183167491407
96.8568755068745
96.9568004518836
96.9915960126033
96.955565315805
97.0085620254624
97.0167461850546
97.0121673666605
97.0113811944676
97.0723969694968
97.1578359842023
97.1124820058762
97.0252462681715
96.9626699331713
96.9163373731175
97.0401685096745
97.0317955770316
96.8502531006354
96.775611631154
96.8498748339587
96.9543317538248
97.0373786962051
97.0257093963551
97.0842938980797
97.1435459403624
97.0402369165442
96.9227047381265
96.9314376969941
96.8865954487175
96.9414932959965
97.0042988570122
96.991296135537
96.9013193256435
96.8976563831001
96.8741127125165
96.8375204343766
96.8674589434778
96.8398159669837
96.7894620365416
96.8615315242708
96.9152375978079
96.9614482575771
96.9903355569768
97.0391265415977
96.9438509875977
96.9244936229864
96.9633121214797
96.9652611531321
96.8837386401353
96.7792495789127
96.806520657908
96.8972818619936
96.9390059266398
96.9964997623667
96.9110400311148
96.8879079962581
96.9481525146999
96.9596884646833
96.8875712514975
96.7657630185358
96.7624214339074
96.8862524163576
96.9228656367719
96.935823614598
96.8884139868559
96.8057219647286
96.8094107720289
96.8613963763833
96.8579780732473
96.8560140717697
96.7983071337963
96.8468632691942
96.8734036592567
96.8499084011592
96.8766225476657
96.9082099544248
96.9179329954769
96.8777069272168
96.8774360690968
96.9110334131013
96.8883317867886
96.8674087266194
96.8820512996248
96.9189900524014
96.8846084871755
96.8378520325931
96.8310930256663
96.8693897560995
96.8836509898235
96.8621266416361
96.8448818179257
96.8175193752112
96.7504522557978
96.7396487318055
96.806741517721
96.8915751341625
96.8885463816216
96.866035365248
96.8297320722973
96.8190661214938
96.8128286560549
96.8041368676787
96.7746791544737
96.8142469473597
96.8292855278383
96.8304137000734
96.789014881942
96.7629898026057
96.8035390119777
96.8312923345443
96.844864473775
96.8991172879683
96.8748006484808
96.8422993130568
96.8909002351426
96.8755635166261
96.8091557032031
96.8312991171567
96.8324841135674
96.8044611623831
96.7844825952205
96.7760750091722
96.8037574173655
96.8739836788718
96.8903320989854
96.893443772926
96.8407562338169
96.7700296707384
96.7567455221191
96.7674492087383
96.7577675317187
96.7839466207856
96.7865361421619
96.7581711596712
96.7371408190807
96.7770595898608
96.7831791348608
96.7669714462425
96.7945542178478
96.7936354794737
96.7132167448055
96.6626602146084
96.5939531490154
96.5534600532409
96.6106973757141
96.6519182989434
96.5924819014572
96.5999705639647
96.6464776767545
96.6327329117149
96.5725016483071
96.5309762477022
96.5498937346042
96.5652401860319
96.5760471450595
96.6043266482286
96.6003599332712
96.533650837904
96.4360766391678
96.4113779534385
96.3619498998536
96.2905796759979
96.2592358663917
96.34512082696
96.4257807498101
96.4442164968649
96.4016692111242
96.4026566524118
96.4564711973195
96.4829069141356
96.370106535478
96.3042427945766
96.2770332156307
96.2506519366911
96.2832771642812
96.2641262405421
96.2044100729919
96.2260985359782
96.2272225561024
96.1684537084006
96.0929572372862
96.0818227543613
96.1425939450189
96.2069254636407
96.1790319305246
96.1759548798993
96.1892495122284
96.1129314467471
96.0736707976671
96.134040729336
96.1669921510289
96.2050050930716
96.2753545893001
96.293069100641
96.3314607234793
96.4200857467926
96.492428480422
96.4445023850863
96.4149704871231
96.4532762094935
96.4539566854116
96.4706698714619
96.4749524138843
96.4446029453529
96.3830295626746
96.3359635222389
96.2736040162725
96.181754951394
96.0652531965314
95.9876421713031
95.9172889234073
95.9401066082555
95.903170601027
95.7924842954617
95.7859592301349
95.792446175761
95.7353921712542
95.6841986948041
95.6179826296933
95.5827191400235
95.558369362612
95.5511737483891
95.503005047309
95.4757264663515
95.4299129444287
95.3133950467657
95.1752635209174
95.0520486647198
94.9553209977717
94.8357373783182
94.6736163803619
94.5014274074215
94.3425798640103
94.1837605316257
94.0312822918955
94.0135734863059
94.0636407177702
94.0682938754093
94.1385109311288
94.196111598116
94.1957651287188
94.342017705961
94.5226964345497
94.6484269179014
94.7712687034731
94.9243126397828
95.0432449227442
95.1626640078933
95.2766621386679
95.3611457147517
95.4408046724625
95.5384666864656
95.6391149155426
95.7052266674698
95.7058417190149
95.7481529238012
95.7864177038231
95.8062247561059
95.7851536859732
95.710546614391
95.6371143017671
95.6312773321049
95.6508236151833
95.5787284900697
95.4228382082705
95.2889689226018
95.2194750007068
95.2015101164679
95.175263795265
95.2205753130347
95.3198826169442
95.3493811662517
95.3571974910418
95.4166782266248
95.4748726769832
95.5014634642352
95.4950623705352
95.4945849890477
95.4938993900548
95.5066388591191
95.5023757185821
95.5759334364882
95.6606599482364
95.6424959933649
95.6080737412965
95.6406736721778
95.7038450249612
95.7551692848631
95.7735205141663
95.75451493163
95.7298729710302
95.7776049703926
95.8142912916839
95.808082388405
95.8047876962182
95.793837504663
95.8027291664843
95.8145813587208
95.8235698838171
95.8555378514305
95.8875214270809
95.9298746861751
95.9773402693304
96.0116196321569
96.0428887455505
96.0702677917328
96.0769640368068
96.0847368893067
96.1036280850322
96.1163275640645
96.1370587480396
96.1469767000165
96.1143987864147
96.1334041632097
96.1731889875634
96.1507613440255
96.0770876242153
96.0623500510743
96.0906002937462
96.0899293308853
96.0738668163835
96.0598326390673
96.0608864377827
96.0985150205942
96.1208912868413
96.1323858353229
96.1254991625088
96.153176993262
96.1599479699432
96.1457162542576
96.1527939726467
96.1998489214621
96.2026169210994
96.221203616121
96.2525550649564
96.2282098615038
96.2028507495536
96.2115033430122
96.2109424322683
96.2375251357127
96.2325471492023
96.2155875949213
96.26483788316
96.2795375813539
96.2465217686609
96.2359246703789
96.2338246001357
96.2257212040193
96.2212220140725
96.2315845164299
96.2219432820204
96.2285706278935
96.2259468893236
96.2144473202007
96.2339788923197
96.2454331107652
96.2300931090129
96.2268521650982
96.22782028022
96.241426090714
96.2437140669353
96.2622151292496
96.2927138441001
96.292563427849
96.2758121462321
96.2625215756481
96.2811034736171
96.3360141336712
96.3144738118013
96.2655058472414
96.2943699526508
96.3457011624968
96.3689754376572
96.3612194675471
96.331276939294
96.3233380714092
96.3237597633127
96.3290160108022
96.3324133557189
96.3595853719757
96.3905435479855
96.3976436935137
96.4100245464954
96.4058463466176
96.3890052327951
96.3939503847129
96.3766626720349
96.3619742343884
96.3320922484266
96.3338789930063
96.3486255261334
96.3353010580798
96.3251669806497
96.3294730484699
96.3358220855879
96.3450331650072
96.3426780659461
96.2956869193589
96.2702762485257
96.2796478449654
96.2843280178824
96.2680095674605
96.2336599353123
96.2187314652267
96.229695026294
96.2752788532433
96.2935626983961
96.2483530578831
96.2181282821809
96.2489198904139
96.3000720416023
96.3201454257286
96.3184905650227
96.3083875364343
96.3196148961707
96.3190362166608
96.2679987687685
96.2529904884135
96.2794907640797
96.2879390947046
96.3062905909537
96.3372948417131
96.3467609121114
96.3477126242038
96.3614934054321
96.3826037845099
96.4248092472237
96.4401354553794
96.4249229440336
96.4285753259819
96.4215512008994
96.45582795949
96.4843014866411
96.4494505858025
96.3844052878316
96.3930172047616
96.4841030127946
96.5002427703359
96.4452991611918
96.4442159598424
96.4603953444928
96.4646729199425
96.4674604660507
96.4481902265063
96.428562011294
96.494820482019
96.5848229046667
96.5222527342577
96.4274823381859
96.4410276951884
96.4780253923535
96.5356729148751
96.5852392924517
96.5602971373592
96.4997863816767
96.5102782663412
96.5158058210738
96.5372521239819
96.5858411206033
96.5628331674371
96.522837439787
96.4682963370223
96.4455827672878
96.4852791445893
96.4726631551495
96.4884779220936
96.532125066576
96.4788217824368
96.4675862524664
96.5760559224811
96.6245009605619
96.5525628830827
96.5052665802952
96.5636408433249
96.5889854763048
96.5956595279874
96.5607694811077
96.5130310377102
96.5254215782715
96.5291130264335
96.5488855322041
96.592301145338
96.6188863532369
96.6021737767165
96.5505440409876
96.5183102533045
96.5556388975109
96.5955008450631
96.5551030573967
96.5568497399891
96.6057101143753
96.6385714754218
96.6120083714376
96.56891778632
96.5704190782015
96.6240920322986
96.6856291961696
96.6440959547658
96.5800987300583
96.5525977476328
96.5787261233329
96.6582209487692
96.7440932106295
96.7890955643814
96.6421708257156
96.5101969553453
96.6314001482607
96.7175910641184
96.6430121149721
96.630795920955
96.7102288208591
96.6796392212322
96.5556714744751
96.565326473805
96.6398481233449
96.614975235229
96.5821615115672
96.5828410183703
96.5668223067307
96.596108423973
96.6665119687537
96.6537682357438
96.5859511322965
96.6303267978037
96.6431797960996
96.5933372037724
96.6439581783899
96.6233785653935
96.5861012477168
96.6022250775336
96.5665459177693
96.5573952104337
96.5971018901819
96.5687082503367
96.5268996830819
96.5427334802511
96.5480007572212
96.5354120102447
96.5655761485535
96.5493286012653
96.469516801544
96.436364293455
96.4872665505908
96.5408808856966
96.5159917636932
96.466591020125
96.4531544444866
96.4179176390537
96.36050361956
96.3448116868547
96.3814984779431
96.4465332643594
96.5819742613296
96.6559593511411
96.6031918180204
96.4694793436297
96.6300139506242
96.823121558515
96.7301518612209
96.7143819456063
96.7632877321101
96.823288709401
96.8361633963881
96.7976050907661
96.7283170661243
96.5992825838039
96.5445720285383
96.4104678153401
96.2637655957264
96.3656324035489
96.5299178074486
96.632438420836
96.7479719020943
96.7868293987487
96.6797547680547
96.6042918586314
96.7201954354682
96.6950130891194
96.5773281861106
96.4260508773184
96.2421648677226
96.2642669626981
96.2651059817549
96.3679286042337
96.4930574203551
96.4732095834214
96.4110782162835
96.4451383183974
96.4890075895005
96.5145151227485
96.5602025663858
96.6091541899835
96.6172030574355
96.5594605231511
96.516337514068
96.5268522094138
96.490466521545
96.4585716181734
96.4500850043128
96.4896341872219
96.5553917430334
96.5475028118758
96.5335744115072
96.5939167996384
96.6537674733637
96.7745780341233
96.9038672127745
96.8893356140314
96.8916442517523
96.9617130827743
96.9357679507937
96.9972927413682
97.1407998785796
97.0735820445112
97.040357706439
97.1526470563364
97.0959359321625
97.0607272343
97.2200552119629
97.2043193496575
97.1624479448812
97.3608723232856
97.3274605503121
97.1716998332622
97.149105657584
97.1135562860396
97.1387756723827
97.2235535859145
97.3355306978787
97.4942778550618
97.5381831059337
97.5758651857861
97.5777233829242
97.4477110659156
97.4766996296945
97.561949032553
97.5803829535524
97.6923110605157
97.7656394720788
97.704409903833
97.5574392813246
97.61188786155
97.834440106957
97.8823018676608
97.7443092315873
97.7893837183532
97.9470512009477
97.865283590519
97.8568146256948
98.1262462474887
98.2232436368684
98.0229050971227
97.8280743205368
97.9448153437621
98.0309303021161
98.0080733023092
98.280043547692
98.4576595107715
98.341039269559
98.4382734915651
98.4371970228138
98.2015971749943
97.9741877039512
97.7151664372091
97.9501144436251
98.6079259144764
98.5476203772396
98.1585630412187
98.4245061798581
98.8841398538463
98.9137721171418
98.6495003536756
98.5055988212909
98.2741597720768
98.0920383531655
98.0714119092919
98.0166750416497
97.7740871591399
97.7416893200758
97.8384876806089
97.773642845026
97.7500947046907
97.7816641693258
97.6841178808499
97.5682488569368
97.4619013550646
97.2526912253936
97.1344380301277
97.2670806296407
97.333472584578
97.1959632129615
97.0670367562117
97.1480306033368
97.1844162407753
97.0161067281773
96.9852475835307
97.1260855353869
97.177135823671
97.1949749907849
97.2163227119773
97.1559796557772
97.0637777203353
97.1305360630865
97.3140814626118
97.4149867475842
97.4237441916969
97.3637791918276
97.170182847058
97.0871707213049
97.1455500597595
97.2590638624604
97.2915300757796
97.1515049550792
97.1895591798916
97.439346363353
97.4619153689174
97.4049855659742
97.3595941103673
97.3305628816415
97.3756459144191
97.5239670257137
97.5086800155795
97.4952443810001
97.6413995749893
97.8362124972867
97.9089547417103
98.0759256563966
98.3609938646249
98.521094242241
98.4236846814396
98.4176073344762
98.5647133595613
98.5944431543616
98.5545843078256
98.5170242535461
98.669213209555
98.9302238519378
98.6977867946069
98.4871099026338
98.6956099051635
98.7638128126895
98.438352127313
98.3379336478433
98.4899291017831
98.6305714163205
98.3965049611535
97.9424264546197
97.9720393885601
98.5298271100577
98.7370096669732
98.7135881229657
98.5296176185198
98.2983857704228
98.1703016088703
98.1851797701876
98.110561231086
98.090238064522
98.0288041356401
98.0310032158091
98.2030590782218
98.0279552742852
97.8815847358991
98.0019315396592
98.0816132482689
98.1669751174632
98.1612188748931
98.0717145077356
98.3611147112578
98.5503509267532
98.0961048392574
98.1655272557318
98.2559069025257
98.0758347189166
98.1278418574006
98.0379850994911
97.8411470324653
97.6768361101798
97.4132403974198
97.384163918816
97.4228585548854
97.5148199461828
97.6412018323029
97.5837659573068
97.3368639546594
97.1394302854656
97.1599045347681
97.4261287227571
97.4983395329951
97.4542253645584
97.3610341812889
97.4953066022907
97.6271261092604
97.6761877820286
97.5288156459941
97.4770719463081
97.3503163253925
97.4472793419227
97.4654801054648
97.4686165760468
97.5911746641808
97.5392955366003
97.5878400866519
97.7265298592817
97.6847875368828
97.5581662584474
97.569989375577
97.6930840442994
97.7632752735844
97.8061875763758
97.7533137740728
97.6835817672136
97.6957183736563
97.7032793938689
97.6054307599831
97.7080308458788
97.758427453149
97.7525632454153
97.690533477827
97.7567955266598
97.8069982095334
97.8848232677906
97.8369106986663
97.7273228561139
97.590694559522
97.4530365210565
97.5877970034748
97.7902413641223
97.7884072474205
97.7610759405058
97.6748905872786
97.6278040142252
97.6307797932058
97.7029990929628
97.6800142305356
97.6891368164898
97.499450121981
97.4854517484494
97.2843047991088
97.3462172462567
97.4853504569296
97.5183621405682
97.4686749504402
97.3965147695214
97.2721571386037
97.2717867969374
97.1106710564795
97.2278431176951
97.1556911938647
97.1848357553545
97.2456986941628
97.1932597698788
97.22640122022
97.2843834749151
97.2850232200039
97.2254921333626
97.134965084147
97.1983064272255
97.2777667385587
97.3357581055438
97.2370640964625
97.1307222059755
97.1588750447661
97.2592320579486
97.2318717978201
97.1790414415742
96.9522467929832
97.1801727216514
97.4216775771771
97.4093169533984
97.2973110263744
97.4158672096875
97.4018715428235
97.4257590235007
97.4476357161549
97.3118105240229
97.3274587058604
97.0870799944121
97.3162977989803
97.2842287701786
97.3775360168874
97.3969970044855
97.1947701609231
97.0787569557453
97.1971313150223
96.9681633793379
96.8281366312724
96.6142859680135
96.023536912507
95.4424231595794
94.66982096033
93.7944950679011
92.4223007193449
90.9252016166943
89.1713043683234
86.9439040519648
85.5313547958645
83.5678879469402
81.3138326353478
79.4698230829469
77.6065616456896
75.9180198516389
74.2484105337234
72.414507647344
70.6557281288057
69.0733783864818
67.1642657235403
65.5739068483907
64.3534718408583
63.7430772491599
63.5635678788064
63.8084289238564
64.4559603130167
65.6591463809189
66.6817709222792
67.5796505313927
70.0703719359496
71.6180634312202
73.2323046435737
75.422510944577
76.0435612899637
76.7443363487864
77.4187094965299
77.4342604903576
77.6339864950594
80.087897844446
80.7778716685142
81.0566967807225
81.1273986622301
81.7470760400221
83.0354141876389
83.0937305477188
83.5846148297288
85.1176499213064
85.5979718020223
85.3587588211948
86.0323420718916
87.1510589604943
87.3765063517599
86.9932369182837
85.7502981180082
87.0024189612381
89.5728474472765
89.0346751868994
88.1989044993285
89.3857537624608
90.1292468458498
90.024536039412
89.7955982895231
89.4035977557972
89.208254335134
90.7350875646898
91.3009460445919
90.967795046802
90.716514117779
90.9544058228302
91.0004152866251
91.1746359852197
91.7150781524798
91.4777869781684
90.8892660792276
91.2888323130418
91.7419137487387
91.4931455699215
91.4629022347135
91.6670094323164
92.0370199529875
92.2171239906433
92.4605239540549
92.7234609002099
92.9495829562357
93.0505820050569
93.1944681711176
93.3159930807587
93.414696406508
93.4297504532012
93.4286561322757
93.2459748396297
92.9516798892849
92.4338600732672
91.7836900802022
91.0815736360899
90.8969600128193
92.0648165281452
92.5271255811826
92.3140606761963
92.7136943346226
93.522993144885
93.5684404801798
93.618668496627
93.1739434900571
92.045012406313
93.4320383154506
94.4384405080747
94.2307702164135
94.3170226065759
94.0619628545069
94.3548720130647
94.3148630602751
93.9422428603411
93.7920433555734
93.5517150478267
94.1807336340706
94.9466426533704
94.7287039293879
94.1887806881643
94.6381556528758
94.6623257552056
94.3532951927426
94.1227154724739
94.2631788485938
93.9246269357999
94.1185733754199
94.6076280207062
94.5019930288391
94.906124510687
94.7924529294634
94.1750514811963
93.130534047172
91.2418941471332
90.3806461049662
90.9663931766838
91.5615265238152
92.3171508357911
93.173055430818
94.1173261791791
94.9277243167542
95.080732286698
94.6747818521418
94.717456972563
94.8971514983336
94.9715091123322
94.7148114896101
94.2757990235294
94.032362742323
93.5064990031735
92.840701827251
92.165744893552
91.5085557793481
91.9063580340827
92.1534442947015
92.2973349453392
92.4194689795328
92.7535361033298
92.4025193070407
91.8031101056797
91.3007570656562
91.879652194998
91.9692657843461
91.8686989337259
91.8247066349131
91.9042076224762
92.3078313110774
92.4991246931758
92.5515982812697
92.6233489358375
92.5327054699424
92.5467116803295
93.4051596592099
93.796752486215
94.027997123099
94.4094178444121
94.8996071562927
95.0360090095947
94.9701249257652
94.9752363110208
94.3592772324006
93.4150697354877
92.0530339652111
89.8386715455014
87.048511526593
84.4024938816673
83.0038420817818
82.9473335849283
84.2268421440611
86.209608742577
87.655349725926
88.6323887327617
89.7952107686277
90.4630722020235
91.1924386973191
91.7832960386703
91.8994570944579
91.774093888547
91.8378470936444
92.0888385618394
92.154600135791
92.2285556365659
92.149922091657
92.1099430432433
91.8411006878284
91.6779861164089
91.6839488944771
91.6403077978946
91.8923985179313
92.3325906672147
92.611988077142
93.1038328706356
93.7310863258012
94.0526744035318
94.1070121423735
93.9894768641395
93.7392372474259
93.1594074490944
92.0323704300313
90.23762956304
87.7052778386852
84.8772987468163
82.4185370601709
81.1195245133691
81.7786271592818
83.8383219618707
86.4749743062689
88.9743724437278
90.9858381525653
92.3510666492095
93.1280533989469
93.4773355835538
93.5552684249365
93.4330433564951
93.2277869731395
93.02748516732
92.750673031681
92.390254128495
92.0522850609697
91.6558252331353
91.1809620997318
90.7506368449521
90.3167577501079
89.8080921026509
89.1438719590642
88.3318180866652
87.3780688314484
86.3495987543501
85.3294034795008
84.3235396427738
83.3399183024184
82.3815031007079
81.4403877466142
80.4913732187126
79.527118577058
78.532767099829
77.5414890124599
76.5769978809337
75.6255879775748
74.6522049036262
73.6641652906954
72.6507467012068
71.6178761032078
70.5990873662025
69.6292426069025
68.7365973479092
67.9986106042932
67.423533466163
66.8975546794732
66.3576761368785
65.7707199277014
65.1232053233986
64.443365341255
63.7794049279631
63.175177633945
62.6700544700184
62.2929338302731
62.0855493733348
62.0841457942136
62.2857153020127
62.7106143102817
63.3006618882498
63.9693034347576
64.6706998743791
65.3772421479391
66.0679140034723
66.7690352604367
67.5510412423785
68.4656468143045
69.4795965434637
70.5263838705836
71.5585310896178
72.5558760262891
73.5106351092413
74.4472105058379
75.3932324519662
76.3374818617213
77.2571147770873
78.1724385471601
79.1069088396914
80.0259697818762
80.8926417275576
81.7311839467096
82.5161629987805
83.2056273456767
83.8018312570435
84.2987442581418
84.6664250998896
84.8876915988696
84.9714448899996
85.0013271058703
85.0460334594753
85.2102004722161
85.6209216806472
86.276996571462
87.0545342579416
87.7973028457747
88.3907665630095
88.8046640386508
89.0828344886224
89.2595114601309
89.3453603174046
89.3105363320128
89.1435143906428
88.856621870514
88.466361465622
87.9646145028514
87.3325713170576
86.5360727380816
85.5688658852175
84.3948334426613
82.968460525217
81.2835931483843
79.4037875854761
77.4688413905628
75.6530332188744
74.0859266568296
72.7783681751684
71.6925806215386
70.77201674141
69.9916272830778
69.4256767224608
69.1248637136869
69.0866088839471
69.1825652906081
69.2223190566278
69.1173620189501
68.7987140230996
68.2038298259896
67.3902539893856
66.5187074833833
65.6924642263581
64.9433264804027
64.3147732335373
63.8525152455689
63.5401724731679
63.3711237913243
63.3320410792059
63.3729933769832
63.4666154916544
63.6317357993817
63.9043653778793
64.3235122208417
64.8865109104069
65.5958185612488
66.4383456686431
67.3600900244615
68.2807566879435
69.2038977601207
70.1241065710943
71.0054788105578
71.8357407106953
72.629654347931
73.3629792896681
74.0214151514096
74.5783074907772
75.0100369845806
75.313689681541
75.5078013655029
75.610384175858
75.6323887395892
75.6354914849565
75.7163905266245
75.876520550788
76.1353124092401
76.5374613362822
77.039885910326
77.6307548074602
78.3277760308987
79.0405805993084
79.3573772511495
78.450435072975
76.1279134264117
73.4625213162233
71.2063765811353
69.1450393276668
67.4921394079959
67.0461249159855
68.0754198201762
69.8798467374144
71.6310548752102
73.0793537138657
74.2535352148564
75.189356875121
75.9698042252674
76.6253892435763
77.1743373905835
77.6733798452479
78.1021673507514
78.4452279580485
78.7039847961044
78.8842422872447
79.0553670807591
79.2465551674122
79.4006998310881
79.4555136444589
79.3520572489768
79.035905963644
78.5041210934249
77.8254569024365
77.1615644894898
76.7423648079527
76.6526764358473
76.8886320715927
77.3358932441642
77.830532950364
78.3454417863783
78.853937864069
79.3270537645134
79.7435557962765
80.1498534917694
80.5450139874754
80.8573290356755
81.1137248853268
81.4031190890039
81.6657880661942
81.8886966325504
82.1061654125841
82.2908600310002
82.4826246879211
82.6644756642378
82.8386743306212
83.0036857903247
83.1726108660022
83.3673636186277
83.5617025808499
83.7408720635827
83.922709216639
84.1007339064628
84.2460137605238
84.3765266658084
84.489737756355
84.5462102212945
84.5508021490465
84.4686622412817
84.2776759554707
84.0671367447302
83.8604456484931
83.6449636128498
83.5035463377778
83.4271799787884
83.4689640118053
83.6204043260644
83.787908904685
83.9687926728383
84.0830902997654
84.0864650559768
83.9522316711525
83.5788129352367
82.9714962190383
82.1035672896158
80.9799460097007
79.4014898663017
76.8830753442949
74.2670728818632
73.8027768267133
75.3547999259466
77.0481501333144
78.258223335168
79.0457895282799
79.5671471874735
79.9056729179364
80.0159552394567
79.9592057378787
79.8355235269285
79.5606872178616
79.1344495824276
78.7074079300462
78.4335649541856
78.4612607288078
78.8156118450018
79.3080869548034
79.7337476958771
80.1459146639997
80.6271149927249
81.082771671506
81.5090566280976
81.905779519215
82.2569433437463
82.581693976968
82.8873770397032
83.1781648910853
83.3970429265121
83.5790690649919
83.721516673146
83.8394438716089
83.9771748310548
84.0725148065388
84.1948726199429
84.3880528343571
84.5773305748023
84.6117283705834
84.6405691723276
84.7764354232455
84.6834644956588
83.9653014615315
82.996787693735
82.5168725427505
82.7718759273112
83.4567172974594
84.1734648076796
84.7501517804113
85.1921653250667
85.6385228769806
86.0987889357684
86.5114389297126
86.8495032338628
87.2491656734133
87.6881336348046
88.0372218361993
88.3500926209647
88.7984254356714
89.3165267489088
89.7981457047434
90.1166143431265
90.5091475778754
90.9107596366484
91.2138891769465
91.5881179474362
92.0217787956744
92.3677581661563
92.5596083409647
92.5388614444946
92.2146266907581
91.2312317414243
89.3741460859932
86.4577212127071
82.8471180603478
79.1568311206992
75.463236294914
71.9520925202418
68.247335646724
64.2907174416417
60.8970446315855
58.8454354345552
58.4020304814279
58.9869476774492
59.9908362756803
61.2748711361238
62.5211745339189
63.6866415157156
64.7929458265053
65.7506479849815
66.6809717918709
67.609975154969
68.4791499675028
69.459908498807
70.3965056650268
71.3569589028764
72.3428483292301
73.1866000493835
73.8963673200228
74.6841547411876
75.2366488188255
75.5236673298051
75.7909980792554
75.958739515371
76.1688312471078
76.4709404296035
76.6781345242014
77.0021427512104
77.4238124282468
77.9726967032237
78.5424809883482
79.1960176424797
79.1927755852766
79.1373002163348
79.3177961096655
79.6459400415814
79.661374797655
79.4638327011495
79.7385555274927
80.0307295176017
80.2494261694759
