1798
3999.43349933624
650.420452594757
1
128
4
97.1604537999532
97.1162491699113
97.1086795534906
97.0594046439308
97.0550750544406
97.1057259692731
97.1586605713715
97.1613496358409
97.0979296343839
97.0721033902846
97.0422903704731
97.049616934023
97.0430673759921
97.0186500438792
97.0850516501775
97.1838658248945
97.1339736821541
96.9828255510642
97.0216350380489
97.0943988481642
97.0757107318755
97.07464930134
97.1033550535525
97.1029038510947
97.1190462235338
97.0850254277784
97.0406278204881
97.0347287822428
96.9578502263315
96.9404118580024
97.0903860368623
97.1938422110256
97.239166917715
97.0948130679861
96.9669922982522
97.0104116589468
97.02842784605
97.0312608290724
97.0481184349382
97.0893484094979
97.0149287438894
96.9569904934059
96.8835012301199
96.9608219509735
97.1873081081845
97.2200614577584
97.160931919265
97.1023644308876
96.940755100065
96.699948501409
96.6812529466597
96.7982865054044
97.0332372840797
97.3159934696127
97.321651499523
97.1673582886318
96.9649953174345
97.0248057149759
97.0737766865489
96.9130791061296
97.0402368848196
97.0584846025352
96.9558162747245
97.0786087296386
97.1970933606659
97.0635630419214
97.0451175469944
96.7096988589122
96.7250123855458
97.0284991064188
96.912855834248
96.989066138903
97.0805006113579
97.1683427461557
97.1444187500922
96.9526407253531
96.4848446365534
96.4656475738493
96.9243284624566
97.2910333238789
97.4175251777781
97.2548084261053
97.0295516655039
96.8665216957357
96.7206985032482
96.6570956545595
96.7295499719865
97.017732174703
97.074119637386
97.1887567755342
97.1781125028506
97.1033820092831
97.1488077546719
96.8899088039559
96.6852703927438
97.0081698457113
96.8958167708983
96.9363732686342
97.2287773843191
97.277587414144
97.1628632695712
96.9302606776695
96.9580901550315
97.0108825605061
96.7113039067387
96.732863085544
96.9014386691594
96.9475447590332
97.1934452102746
97.3016989558147
97.2572316042592
97.1740733032525
97.069325084152
96.9499231716654
96.9818998242479
96.9621381896101
96.7911899255663
96.945811259923
97.1212125551309
97.1405724994777
97.0933042736137
96.8972836547184
96.9109537403159
96.9568323197658
96.9680288915633
97.0527250764825
96.9617943810337
96.8867770164314
96.908221302537
97.0392118904075
96.8862127155318
96.6925883279608
96.6018498178356
96.9142340274759
96.948398425124
96.8194708076879
97.1480976662959
97.17725760279
97.2375055624856
97.023388715799
96.7639220385946
96.636457484327
96.9069463998756
97.2433483261584
97.2239277104937
97.0846526518757
96.9149326117595
96.7794019531551
96.9510983335144
97.0754998768017
97.0495654918828
96.9566564352038
96.8357786829465
96.8186466272249
96.9726462141536
97.118026745825
97.2325473459682
97.1124866140675
97.008309853797
97.0854575382931
97.1857547152421
97.2219681133775
97.19175957382
97.0405632737232
96.7660999194421
96.489640567993
96.8150892152434
97.1799617606787
97.2615460742007
97.01823694963
96.9241732018043
96.7511054250649
96.4156535802302
96.615862474987
96.8259314313537
96.8455832016262
97.1346603611717
97.2562423428874
97.1992449853473
97.1634970700573
97.1103546149508
96.9714085608713
96.6786253357346
96.6860734814907
96.770467819218
96.5630847594943
96.2943795899307
96.3127225972366
96.8131632528862
97.0626899729573
97.1426638348826
97.1196332947063
97.0497398828436
96.9040139587458
96.7157934559106
96.7625984443677
96.5895971412625
96.3498421909121
96.5321482319759
96.8124145012334
97.0272199238691
96.9605404169501
96.8218543471681
96.752299719331
96.794056009192
96.8516021958336
96.9196785716686
96.8041823667
96.772663657663
96.8795932118243
96.9832203733858
96.9899187314947
96.9746403342139
96.9216179181464
96.9063408980329
96.8556724835895
96.8379363681175
96.8957479148801
96.8638321612514
96.7254419727567
96.8166156091352
97.0265281343312
97.0201272908609
96.9177381121778
96.9081529715885
96.9230245494415
96.9811647760471
97.0408901899997
97.1035156925409
97.0675953973241
96.8242549514948
96.5574870363963
96.6438249301569
96.9456340411767
97.0382938805133
96.917189857027
96.9203898400806
96.8669303914181
96.7644620368938
96.9043806824401
97.0010620845415
96.7956023870733
96.7284257942358
96.9500176189816
97.0680500218402
97.0415918678878
96.9414576646326
96.9245262242986
96.9419822400598
96.9135695842165
96.9484278126672
96.9815845932828
96.9265333529035
96.909760764872
96.941660353722
96.9644277009878
97.0319335774953
96.9538258471215
96.9278592093035
96.97815211053
96.8728615499894
96.7927405476346
96.8812401065027
96.9625052253331
97.0505842659077
97.0873700994607
97.0981496736075
97.1423937034959
97.084085193529
97.0212615477293
97.1315138754118
97.1821803116608
97.0585746615118
96.986689810036
97.081519098802
97.0332695910361
96.880644849502
96.9176856255112
97.0703528503074
97.1029541753883
97.0728350029661
97.1139095385739
97.1837544824973
97.1468857887414
97.0602963229733
96.9827927810366
96.9530653066804
96.9771865835636
96.9926882590961
97.0271024627586
97.0702996598976
96.9815137285888
96.8790659302258
96.8521988568971
96.789711302036
96.6775034610787
96.7477818727275
96.9094062476575
96.8969589235203
96.6378581191803
96.4895767611721
96.6018665880912
96.7110367423227
96.6292903147277
96.5806921250098
96.6407057539729
96.722566559115
96.7256254271272
96.6121062329866
96.5663512889926
96.6729382902017
96.7472687635097
96.730357873496
96.6899885627003
96.7770762723245
96.7488106950734
96.7013039771327
96.7391114846453
96.7570207716477
96.6740829908035
96.7637918009163
96.8488792445144
96.844257981844
96.9488368669119
96.9869026909149
96.8891682677811
96.9370088103224
97.031430346497
96.9567611711023
96.8586537858725
96.8410257257503
96.826938976262
96.841367275834
96.9253956526078
96.9788656875582
96.9590091214909
96.9672666112973
96.911003399001
96.9574193552118
97.075307281449
97.0074513239928
96.950874195932
96.9973097714221
97.0144755811084
97.0117416029385
96.9386525301639
96.8764873331975
96.8977130159363
96.9700968384737
96.8827314229784
96.8098330422358
96.900529380153
96.916854104318
96.8170230763389
96.8090231703648
96.8500041892052
96.8562994834176
96.901785611615
96.9050588000094
96.8155700608729
96.8452787970855
96.9098886343004
96.9586606572514
96.936177953221
96.8372132483886
96.8341394140603
96.8373534595766
96.7833412264458
96.8625563698515
96.9154396378875
96.9132392036964
96.8743774787877
96.8699866939945
96.8872407258363
96.932757428609
96.9851698461712
96.9761372358806
96.9338205448933
96.9480834982141
96.9213833511307
96.8585460404228
96.8975753323848
96.9856572068019
97.0049208625652
97.0259107957015
96.9853555250263
96.8522101007467
96.817568290152
96.8664129981007
96.8576996655812
96.8762045783743
96.9303689054681
96.9535667348657
96.9416852108127
96.9469335545722
96.9205648519006
96.8791150044257
96.8913253131849
96.9018361639635
96.9224307952699
96.938553520408
96.9016522480165
96.8096059498854
96.7704350902143
96.8808920522781
96.9574446727401
96.9201999254481
96.8669810337878
96.8233149417035
96.8344017083244
96.8959822703224
96.9379242391061
96.9616075635561
96.9768004379578
96.9278588783501
96.8364076167487
96.7828813773169
96.7626476804498
96.7656335780488
96.8481056802787
96.9488919566374
96.9782449958082
97.0256227978701
96.9608065458704
96.8153351222604
96.7875068695737
96.8780591473485
96.9246463492223
96.8996125123246
96.8823853834948
96.903631392091
96.8544591352702
96.8362058769891
96.8900626571669
96.9249478450284
96.9286803518959
96.8843436225018
96.8655595342782
96.9665432821753
96.9616454257977
96.87684769393
96.8537301512661
96.8960438539927
96.9391910668292
96.9298643013288
96.9437543697767
96.9827781478992
96.9157078985158
96.8279289857249
96.7960135372479
96.8399103653666
96.8395020001271
96.8189945351057
96.8353688598726
96.8807426076459
96.9049203303468
96.8679841589588
96.8280148945523
96.7837894051439
96.7679276982514
96.8242927044163
96.8546164117371
96.8463977174798
96.796896142624
96.7656129980662
96.7960222345002
96.8208413166614
96.778583060733
96.7056772398761
96.6991458115651
96.7346047638361
96.7192674087483
96.6787169043929
96.6403700520321
96.6539959560352
96.6804907860239
96.6546365563794
96.6189453334633
96.57971449949
96.5718894475776
96.6186561249711
96.5912264908161
96.5529789450604
96.5771914577598
96.6133360828033
96.5968544255492
96.5619376184647
96.5682273360676
96.5881030410985
96.56164904204
96.5164804040354
96.4635012400686
96.4751577628988
96.4612317811856
96.4196053821424
96.4410558386951
96.4440467732746
96.3927166805168
96.4181276623322
96.4821395372765
96.4884680816212
96.4621616227359
96.4417709345094
96.4114937850202
96.4192491205846
96.434118581906
96.3815605749279
96.3676583988907
96.4255952178151
96.4433494591988
96.4510265465417
96.5151175465803
96.5475076210365
96.6020054465451
96.6923961948964
96.6800473634265
96.6414829569653
96.6695711228624
96.6786015937362
96.6048513034135
96.5962200688244
96.6398375976463
96.5972753701999
96.5214074848402
96.4977946908827
96.4686566284795
96.4016601425541
96.2737459400654
96.2446888225246
96.3026422538046
96.2730120967096
96.1978034064209
96.1534261024299
96.104944529706
96.1131837105275
96.1129215968724
96.0435219391142
95.9882127365389
95.9849614142029
95.9783762154503
95.9539832263369
95.8850145982847
95.811523382893
95.7984459132318
95.7423222376326
95.6336729391059
95.5940794242358
95.4926262495278
95.288247340615
95.1398491164947
95.0557899015509
94.9406511254943
94.8428304869152
94.8273749449231
94.8521873188063
94.8701317148049
94.8853656134177
94.9006794426958
94.9729049648013
95.0826977115068
95.129459367806
95.1647706116779
95.2859111379727
95.3885575081823
95.4581001018363
95.5713050497803
95.6665113625973
95.7223260777915
95.7922683622721
95.8452469248079
95.8603586552432
95.9235041117631
96.021915351324
96.04533084276
96.0609491780286
96.0979805934599
96.0799396426408
95.9983939143611
95.9760339408408
96.0329470987909
96.037170754663
95.9408625989095
95.8650777821178
95.8296066820789
95.7348820634997
95.6199970096833
95.614752816688
95.6658616035117
95.6809416187521
95.7369252944813
95.8439227092947
95.907334793684
95.9057612025435
95.8927959202168
95.935448246807
95.9534517902997
95.90928524521
95.909078107295
95.9764718735684
95.9768464192232
95.9437906479366
95.9533529422293
95.997748012983
96.0459235305782
96.0771747573736
96.0690125957431
96.0569878547986
96.0691465213256
96.0779039219746
96.0346309670971
96.002746193141
96.0290256812688
96.0847590144431
96.1511346535318
96.1674361324414
96.1751768107767
96.2348323525845
96.2627509385328
96.2796507207792
96.3144038245472
96.3073706964578
96.2789083847309
96.3087741966859
96.3534767449428
96.3792827739444
96.3854571559463
96.368516014079
96.3798114500567
96.4203941530735
96.4156294070729
96.4018184118409
96.4437393144982
96.455767269118
96.3846422527558
96.3466525331011
96.370790455242
96.3972833757526
96.3861907987085
96.36927004212
96.3906138355396
96.4203436991635
96.431736612523
96.425817442564
96.4097692311727
96.3986518830858
96.4052701013805
96.4167319774076
96.4109359694534
96.4160467412721
96.4246510898507
96.457790608753
96.4679596884345
96.4486672245964
96.4658256076772
96.4610638209593
96.4220183108391
96.4410401650748
96.5010316947032
96.5399793765991
96.5606270748841
96.5784487199182
96.5567594720177
96.5184766216301
96.5161351835319
96.5145791994339
96.4861652556091
96.5108978717304
96.5406142651855
96.5181168521379
96.4972227475069
96.4963379759954
96.5017918485326
96.5238910242555
96.543563606633
96.55746961062
96.5347857778013
96.4803471325522
96.4573699422745
96.490214050286
96.551816376214
96.5680277683377
96.5501813164193
96.5508125871536
96.5214861992133
96.4859445712453
96.5096753833782
96.5638535545347
96.5956840480634
96.613422368603
96.6006401955266
96.5884398508135
96.6036037202208
96.6240150084714
96.6359656418542
96.6342067286855
96.6153156605616
96.5831861459863
96.5751394970636
96.6060090124228
96.6374995998099
96.6535007827663
96.6347862154521
96.5960775105437
96.5851737759772
96.6021261749072
96.6187545660709
96.6141626348345
96.5913349878618
96.5948243148828
96.6097079387291
96.6149961022574
96.615242417527
96.6053115712807
96.6020870426353
96.6432589181252
96.6458270057123
96.5871955348413
96.5409516857706
96.5262715469363
96.5396812030825
96.5493574582781
96.5362440785552
96.5305365857291
96.5457034193357
96.5527889492043
96.5307358016505
96.5140628353972
96.5257616519105
96.5368556721748
96.5345502802686
96.5519067621058
96.5437986922006
96.5333265079568
96.5421588204024
96.5275446022633
96.5425273280853
96.5938598232758
96.5827834181884
96.5234038140207
96.5194741893122
96.5235517375945
96.5329858724462
96.5990656820342
96.6251906103571
96.6090758958648
96.6139081013633
96.6518352688713
96.6616826571133
96.6353553135693
96.6377427793118
96.6469857814862
96.6374437664743
96.6370138312771
96.6979445869607
96.7541836678422
96.6812155618534
96.619912686453
96.6488789913505
96.6608631084891
96.6680255471289
96.6912113707987
96.6715292423253
96.60699330616
96.5972759360338
96.6434889213498
96.6606859060882
96.72840821615
96.7728151526474
96.7316867074719
96.7328378128188
96.7495479962223
96.6837813863804
96.6451541198384
96.6818028642989
96.731591425219
96.7787946407303
96.7424132154827
96.6456603629923
96.6110151469704
96.6351961390137
96.7144226771745
96.7882778804599
96.7347356699015
96.6615004161517
96.7202439341496
96.8062466598006
96.767897927899
96.6682817158449
96.6484914286525
96.6598991422001
96.6780217615278
96.715624515509
96.7661026369639
96.8141139161774
96.7989242401904
96.7015017507781
96.650508559788
96.6602569296287
96.7177609311392
96.7997150812092
96.8167841248853
96.8151021873672
96.794176865277
96.7463580288518
96.770142318365
96.779748881353
96.7499328800111
96.7817489413149
96.7736001465591
96.7395035932334
96.7608696431838
96.7746400088851
96.8148154028211
96.8822991622122
96.918454417757
96.9150253409388
96.9100462438274
96.8106615828604
96.698838634822
96.7433304690295
96.830531615921
96.8264009289306
96.784243224087
96.7575779413741
96.7540060082389
96.8590489715898
96.9415373473195
96.8652845659554
96.7976043793863
96.8143083312923
96.7993208720564
96.7795141071148
96.8032600453333
96.8502988879373
96.8697593624617
96.7988913540991
96.7342506904454
96.7674265400771
96.8635202334147
96.8785059969513
96.8146026968875
96.8276018407864
96.8563855260121
96.8707180332065
96.9134419388179
96.9058014178053
96.8392605316139
96.7433139726261
96.7855859786301
96.8941000868237
96.8348456697523
96.764037426136
96.7969843319238
96.8131725909693
96.7821437906518
96.8051969690855
96.8645532627367
96.8263149407854
96.7745313319434
96.8247482841516
96.8520882097941
96.8242715998579
96.8158519666442
96.7909632839485
96.7512631697419
96.6974607513569
96.6910070556037
96.7701430331216
96.8001849902342
96.8058416577455
96.8104596038417
96.8072445673117
96.9080641273645
97.0529656672174
97.0489512919684
97.0448722851858
97.1534476955975
97.1267768030414
97.0062289381039
96.9692358673125
97.0655426022053
97.1441421845705
97.129063640293
97.1279532648039
97.0743884516662
96.9519551310957
96.7930114730613
96.750708434719
96.8658433270597
96.9097007907972
96.9434626842447
97.0163075660447
97.0351524346611
97.0265592027274
96.9976239024859
97.0175164792863
97.0265822923321
96.9577566405517
96.8193351045745
96.6985642474806
96.749348985761
96.8213084162833
96.8809543914965
96.8896623695714
96.8549826262366
96.8860289960382
96.9013048204846
96.868175567859
96.8834183040058
96.9011192841279
96.8471340143576
96.7958039874547
96.8102176678728
96.8286570408199
96.795783016652
96.7918775871792
96.8323299626455
96.8005860342701
96.7328229487066
96.7512828720339
96.8217086010342
96.8665736563875
96.9044356726287
96.957546507068
97.030757390613
97.0103684930258
96.9871659146173
97.0415029872675
97.0407569740661
97.0614405360785
97.1530465643309
97.1462380803689
97.1435429270259
97.18635397281
97.1528377969236
97.1315023178585
97.1453300706168
97.1545828041188
97.1187393141628
97.0943814382476
97.1659063334825
97.2955959801481
97.383963017139
97.4477770962062
97.4362165721435
97.3220050119904
97.3545501777264
97.3958397392037
97.3340758629737
97.3721307315358
97.4037785802848
97.4643712790964
97.5006418961544
97.4022633614304
97.3060475886891
97.2990734895122
97.4272241249812
97.4987956594685
97.622822309519
97.6987935673839
97.7298285586468
97.8035478888243
97.7158472566933
97.7481290111675
97.7120520972364
97.6619077605147
97.9133423120593
98.0119882622143
97.8425778258127
97.7323997273266
97.7056105604543
97.7465682186982
97.9534533476359
98.1192549508178
97.9597965631019
97.8196066668341
97.9476668048091
97.8288927666244
97.4990110724056
97.6211220532058
98.0351453176997
98.0563505117257
97.9559754295276
97.9546323949028
97.9811298761928
98.1453601331949
98.1855415041322
98.2596587647363
98.1498289314679
98.1795407239716
98.3099528632189
97.9906750904397
97.9937780024185
98.3423578711584
98.2028019590734
97.8641179348938
97.6836948833013
97.7209108807357
97.8090852839239
97.8493547135083
97.8919872019637
97.906891708299
97.847813922829
97.7504861780824
97.6783248406639
97.5130998454547
97.3531879882483
97.4195198391078
97.40249648972
97.3460521514839
97.4189131154604
97.3929636315194
97.2566281890036
97.2640211661384
97.3430157520598
97.3321353616786
97.3447476294843
97.4502250350446
97.5181846321315
97.4849919181412
97.4997306446453
97.5520037409648
97.4952693081479
97.4452988896527
97.3935759461797
97.4040342249598
97.4728141228111
97.4228071630452
97.3790484088122
97.4661317534705
97.4534215833309
97.4077721174184
97.4663021276331
97.4460814853574
97.495212518985
97.6104800526577
97.6098033940504
97.735696889704
97.8941619718429
97.952314477552
97.9830976344808
97.9510646777546
97.9069359610729
97.9484719209867
97.9026507854692
97.8007445305649
98.034308411129
98.3738594854854
98.3094815509207
98.1917455549764
98.2534454698534
98.1982760445545
98.0941101377287
98.3860041215332
98.587566533989
98.5038424388114
98.5733128639432
98.7659343397249
98.5268874400718
98.2027497464508
98.2623171078111
98.3223912543524
98.4252490186191
98.2522212331987
98.2180185225423
98.5487042876122
98.4581548224927
98.229395920866
98.2999947865064
98.5770172490932
98.6507728992114
98.629140589578
98.5351861080785
98.2234577847152
98.0168147516827
98.0380582927551
98.1200132398939
98.2834641904395
98.3369243204186
98.1863588687656
98.1385346938706
98.2924601964563
98.4114466603098
98.3410786577385
98.1949613325261
98.2009232303957
98.3961009272514
98.688211849814
98.6030845632485
98.1185783157922
97.8421301577311
97.916145919447
97.8774318898952
97.90050716284
98.0045417003513
98.0224471789255
97.9180639677662
97.9278770951096
97.9372723760994
97.8059439762144
97.6318199350837
97.4627752331575
97.5146621345666
97.6354886330577
97.7721840254244
97.8234455888769
97.8272149436737
97.868452298725
97.7904315336326
97.7625984632783
97.807397111341
97.8885053304446
97.9494420053179
97.8932998684189
97.7837539766529
97.8723650045532
97.8461009991078
97.7718479229296
97.8474710539593
97.9139311326643
97.9245793278519
97.8702092339399
97.8602040705935
97.9725917661039
97.9930242359268
97.9797332810018
98.0459126169775
98.0924775331489
98.0183358857978
97.988475058345
98.0195536963174
98.0142500600956
97.9395095529018
97.9261598141185
97.9347721749512
97.9748645941151
98.0192366535332
98.0614171942069
98.0695239689141
98.1138057809506
98.1451987126322
98.0613888472133
97.9183873253925
97.9569400026292
98.1240738335046
98.1866330333041
98.1286821832525
98.0618791520954
98.0041605130103
97.9653372670504
97.9755211133556
97.9806389032568
97.9650622764548
97.9706233976393
97.9268702842273
97.8833939535018
97.7383357943378
97.7878457513403
97.8606461482312
97.8589026234378
97.782625499158
97.7477354568745
97.7083217634491
97.6206444088948
97.577796396306
97.6416145184895
97.5207094213781
97.5308624481438
97.5860166924379
97.6306761980073
97.6694845805343
97.6960093513909
97.7254958460807
97.6645878982771
97.6029184997702
97.6433351540781
97.6603291606161
97.6623001871325
97.5858470168142
97.5176793469293
97.5729329723814
97.665870752841
97.6501081586937
97.5804688557413
97.5174691931563
97.6937001652862
97.7549565024549
97.7161344972618
97.6705970023069
97.7371536177059
97.7520202297069
97.7962768862055
97.7587653907688
97.641517076409
97.5689955844128
97.5474791189587
97.6616016291391
97.6540239163383
97.6733596782946
97.5994728561857
97.495632357855
97.4641293616006
97.3558151481322
97.1787621409163
97.0108571627798
96.6625093864412
96.191285330598
95.6502882397585
94.9433298267123
94.0943787071256
92.8346884996103
91.3942362905143
89.7860050807737
88.0934062647233
86.6372758099731
84.684261247854
83.0057000224128
81.7494127788723
80.4013329292562
79.1059989640554
77.7509534667242
76.3507663367099
75.034814426247
73.5323901541058
71.6068069484755
70.3445787875326
69.9505240917316
70.0503999163705
70.3813453615151
70.8258470341628
71.4639845568839
72.562328989959
73.3336187826743
74.1276585387729
76.1609785930765
77.0442845436698
78.4017246600341
79.8619512573583
80.2227681599576
80.7862683470016
81.3519621132356
81.2045522088914
81.6151568890119
83.4850477893765
84.0087881928459
84.3030840225798
84.3330118114718
85.0061368184384
85.9415087761764
85.9490137856175
86.5338806444568
87.696807064938
87.9651928488858
87.9251245568899
88.6012807876453
89.3107362547555
89.4458076708616
89.128010366712
88.2565651034737
89.7614397358109
91.4896774442582
90.8865832478629
90.4763722943893
91.4900425247652
91.9209830622199
91.7988518453519
91.6296034677857
91.2646337450472
91.3458549942843
92.5494894455715
92.8466905637096
92.5994096638177
92.4906681204285
92.6474172623141
92.6298733728489
92.8659367337796
93.2157606536337
92.9113508333515
92.5482323431967
92.9208296660383
93.1072403675235
92.9659154279964
93.0365940115772
93.2718524173102
93.5128234256283
93.6569491907107
93.8749381391777
94.0665139418407
94.2151989283527
94.3141342760077
94.4159620691324
94.5007231549263
94.5409502522027
94.4996581267436
94.4382161110865
94.2754636120238
93.9853861851648
93.5592524126411
93.1131292115328
92.6078750814281
92.6972043267614
93.6808330054738
93.9658190259702
93.8479070857276
94.2563441300062
94.7131780360518
94.7791952956695
94.8534371699365
94.4370439211703
93.8304048517134
95.0739646213548
95.6111391803233
95.5552467969844
95.5503242835006
95.4492586570603
95.5963262708468
95.4710676040402
95.2809083567001
95.216749531903
95.1977440634991
95.8465171888111
96.186506033368
95.8544938283154
95.6308968584834
95.8984039234062
95.8119883854037
95.5637990780054
95.4770669175608
95.538534455232
95.4109423442659
95.6862615275199
95.8513068044536
95.7870855745114
95.9327168646061
95.7071877693022
95.1672820461812
94.228733723229
92.6658945964205
92.0074686645672
92.5917450056353
93.2889992466672
94.0703494791574
94.8208213186581
95.6060898552657
96.103286643498
96.0256013934101
95.7570648140066
95.8377892471692
95.9248514701481
95.8273417779342
95.5024182795526
95.1450072243359
94.8468271797895
94.3948963913049
93.889709038579
93.3177971731159
92.9816905056602
93.3070734412552
93.5217406186622
93.6089100511583
93.7434250380211
93.881475241411
93.570746981228
93.0705533851329
92.8440702366321
93.2820879182894
93.2670968797504
93.2039859162355
93.2088338329643
93.3463320399249
93.6066975209364
93.7094595741843
93.7751157608079
93.8686805811802
93.8357810084772
94.0665484533233
94.7223560434987
94.9944056633476
95.1939429910522
95.5224730909796
95.7858141406622
95.7470932992329
95.6250083481461
95.3818707589689
94.7087659208395
93.8339853909992
92.5098106726186
90.5075973844207
88.2038233113035
86.2969506141835
85.4930641883607
85.7774212806902
87.1320555490283
88.8201677281956
89.9630648638028
90.8860833853049
91.7633843905237
92.2672680929671
92.8128409104133
93.106140580402
93.0819124882384
93.0006653146128
93.1408332907944
93.2932507502664
93.3004237781621
93.319310049621
93.2994447562917
93.2210330615651
93.0171356455792
92.9462705637992
92.9506633613145
92.966018855154
93.226220142237
93.6101693657539
93.9295286985433
94.3664169036235
94.7687448777636
94.8872947641279
94.8004661644424
94.5832336821664
94.1687771133315
93.44287182778
92.2839384982537
90.6078839112597
88.4501566895546
86.2372378696324
84.5105724048369
83.8662888280469
84.7796658058914
86.7115299996093
88.9943482274534
91.1073550582286
92.6954753840054
93.6702902087985
94.1740461473101
94.3591724176488
94.3249102493674
94.1815473933015
93.9987058836733
93.8014692788362
93.5485673811516
93.237999802459
92.9318919329339
92.5709287809626
92.1571965071016
91.7856347131383
91.3900745925814
90.8945361724002
90.2994058065781
89.5641477842747
88.7246094187963
87.8786257915833
86.9955717606512
86.1377988842218
85.3113716949467
84.4825389451044
83.6797137475454
82.8664186382809
82.0280341352531
81.2096429961535
80.3929235913829
79.5704785682383
78.7823304785699
77.9807915847837
77.1401678278459
76.2910625883729
75.424119933842
74.5890688812741
73.8204246919156
73.1144780407981
72.5279148373279
72.0566401995984
71.6241100349808
71.1780513566422
70.7172857983875
70.2117052743597
69.6658474906602
69.1341329276935
68.6630893504058
68.2971380750182
68.0463073522227
67.9278601296397
67.9628816669772
68.1632562808113
68.5333292103631
69.0319239231552
69.585422658086
70.1216572060369
70.6717252760648
71.2304874093832
71.8057650599505
72.4598066619597
73.2022463730762
74.0196699847769
74.8693254381216
75.697506992257
76.5244884260612
77.3309841397572
78.1135585084208
78.8990761061128
79.680447298708
80.4580206482654
81.267003361558
82.0616121925266
82.8173548506596
83.5564054778245
84.2791712023444
84.9414495698328
85.5144294154238
85.9947905885588
86.4103708126748
86.7078140734779
86.8653900527067
86.9239616598375
86.9665597328244
87.0511893762457
87.2609810422001
87.6817709947484
88.2899520387346
88.9861108825641
89.6162272613067
90.0699292291375
90.3728822695814
90.5739227084314
90.6757658990184
90.6846461351562
90.5898317512651
90.3750503031537
90.0637589122283
89.6872177870664
89.190688940877
88.570136429872
87.830267862419
86.9110757906834
85.8043458524778
84.5156296270544
83.0226074588558
81.37744334626
79.7631693528825
78.3152936924107
77.069755151552
76.0407563358496
75.2174058792227
74.528803130154
73.9417120220296
73.5177659685411
73.3197930550924
73.3122405730733
73.3719181114615
73.365003446556
73.2283391587797
72.9028389037035
72.3679337152927
71.6752692542252
70.9460751031143
70.2702050703475
69.6862686081249
69.2275162448502
68.9057591361756
68.7040799836368
68.6189941370682
68.6271056628664
68.6969655622106
68.8052943779004
68.9604401495442
69.184007186485
69.5313556867067
70.0341359230378
70.658246417238
71.3565671563502
72.0938835024801
72.8466400134141
73.6073455611438
74.3465323419858
75.0574450025033
75.7196429881338
76.3383021115164
76.9200616670524
77.4420594199469
77.8873806115357
78.2237988153679
78.4340662517496
78.5697902485953
78.6584035591321
78.7109724181958
78.7799958963159
78.8959321038365
79.0672974768078
79.3341439827912
79.6955974545763
80.1382133500445
80.6367659955376
81.1724252002768
81.6439921823381
81.6633825912239
80.5951356992417
78.4300422303719
76.1781819794693
74.390447125658
72.8473455140556
71.7546896476062
71.6928502965981
72.762769248638
74.3477593345333
75.8132647384215
76.9882506719271
77.8933802282767
78.5926261145016
79.1803317566659
79.685225485817
80.153163869229
80.5743205342376
80.9238997042611
81.188265071649
81.3690997847538
81.5083274300643
81.6581645641844
81.8119305154787
81.9491592308063
81.9891369900543
81.8346298652141
81.4725011789584
80.9427935155105
80.3453307975529
79.8341035048483
79.5697560134829
79.598628388275
79.8675332729829
80.2650399793563
80.7093266738844
81.1645065289726
81.6191065810122
82.0524136065868
82.418112147517
82.7438537043844
83.0518196508446
83.3230335715762
83.5580409090975
83.8087585053828
84.0368077129553
84.22532673682
84.4121194773686
84.582144470552
84.7516152942368
84.9330775757433
85.112870067036
85.2808023094075
85.4390291199691
85.5859150829578
85.7128976424658
85.8763338248858
86.0915178790546
86.2576635775193
86.378828331538
86.4948895194332
86.5390245032415
86.5402264731066
86.5549569214102
86.4972668648388
86.347486245486
86.1469518485695
85.9379756521907
85.7514817053234
85.6392601117196
85.6229388068713
85.6901967052897
85.7946466448119
85.941140877491
86.0857615599451
86.1440745856566
86.093013591451
85.9201057485315
85.5184149800512
84.864326508643
83.9884467771892
82.9159330210188
81.4966675183604
79.353326515838
77.3105031958508
77.2330848379901
78.776061140772
80.2931589462105
81.2936182784534
81.904855285595
82.2225768395997
82.3810028404697
82.4306499748845
82.3711316761607
82.236698915255
81.9779759034044
81.5741928837951
81.1924920243399
81.0970655471931
81.2752995857774
81.5936690910411
81.9767010093463
82.4155431682994
82.8205765140071
83.1852155006033
83.6024991435324
84.0387287869352
84.3682068195014
84.6572605935854
84.9659286180469
85.2223667712351
85.4613537923352
85.6354606196909
85.7713746152749
85.9434938002109
86.0528240953745
86.0995669355853
86.2090309817016
86.3811991429148
86.4677572807032
86.5289942408121
86.6341164064361
86.7556166877201
86.8243785929069
86.5888162639742
85.8511141838605
85.0339227060318
84.8369978449339
85.2815136067886
85.8527248655638
86.3836023273557
86.9200398087087
87.4058379911535
87.8534677715468
88.215160423343
88.4722391311902
88.797412134609
89.1940085524482
89.453489563813
89.7479900516655
90.1586239229349
90.5901929358256
91.0038644114417
91.3373733800618
91.692928693682
91.9854571280208
92.2918464184944
92.7283893638579
93.047335474286
93.3075107171852
93.4917840619848
93.5693712559989
93.4764393307008
93.0505852401053
91.8984331596545
90.0312198990607
87.3995951096959
84.3205687866043
80.9960349647289
77.7297639496126
74.661083785144
71.6355069588157
68.6767478816689
66.0883268752461
64.6551064524605
64.36090761441
64.8200093752629
65.700523613875
66.8647171666624
67.9003840097728
68.8363750689561
69.6507012304718
70.4964128614154
71.3891435594411
72.1869629695927
72.7825343865056
73.4996904205681
74.4207487935345
75.3218585207168
76.0744025416307
76.624234536395
77.1770369013428
77.8699003340133
78.4294668210018
78.738711006696
78.7590834049312
78.8845388151266
79.3487686050465
79.8704784625847
80.1488758663282
80.3171797853489
80.5071138178841
80.6281506730634
80.5556642029534
81.6432199633002
82.0178688188319
82.1522383173058
82.5407144687679
82.5832307678007
82.4409363626641
82.5032916267058
82.8520942930236
83.1653717841615
82.9518999275579
