1798
3999.43349933624
650.420452594757
1
128
4
97.4955574957189
97.5218958426889
97.5310785242992
97.4811902251781
97.487118759055
97.5144940246653
97.5899074048953
97.5869632475103
97.5118631760836
97.5384567262762
97.5298337547573
97.4558734289827
97.3491058535011
97.3273455981727
97.4263925211012
97.5699877880624
97.569869559022
97.4370876044179
97.4200414623812
97.4301592928853
97.4415323666826
97.4041778262199
97.3450158056676
97.3858278972748
97.483739325375
97.4818025076873
97.4833520720129
97.5024566607192
97.3736106265117
97.3228689495566
97.4436771163861
97.5733048886219
97.6840940092569
97.5225788713563
97.2615232395488
97.2532826669374
97.4064600654046
97.4704139532141
97.4317824883631
97.4501032919208
97.3872061891983
97.3060315431564
97.2174885932819
97.3158166740932
97.5180926073002
97.6012729061867
97.6057880361387
97.5237227525136
97.2667512226787
96.9115753284107
96.9147261746491
97.0760046609607
97.3468119828907
97.7676747560033
97.878556548639
97.6209446561148
97.2048199647407
97.3396062696159
97.4465031602789
97.1708638292675
97.3705474403293
97.4667953914659
97.2439074935407
97.449768310706
97.6544091549183
97.3648442787705
97.2966738990634
96.9815546984911
97.0427106880242
97.377097932068
97.1963131924469
97.197655122847
97.356088351406
97.5483345902327
97.5491520126111
97.3298865431022
96.6129242444104
96.4391940757475
97.2213632573076
97.8316864153758
97.9219255923986
97.6568242620662
97.3374232947371
97.1403038239632
96.8813002512485
96.8085087096055
97.0129495298017
97.3648296254676
97.4519245989724
97.6604483113633
97.5736115417786
97.4425249794536
97.4750977030222
97.0419591297405
96.7520771274273
97.2890088303637
97.2279660008787
97.2275681275018
97.6226196807454
97.7457563014196
97.5441702026945
97.1166738296654
97.1619401800732
97.3015279360706
96.9222981487917
97.0570250398113
97.4175499324007
97.348434235286
97.4590655935664
97.6690194374428
97.6472393439341
97.4982629547809
97.3832127332492
97.2837815843562
97.3675775099546
97.308217613148
97.0370339981098
97.1463142124659
97.3728086868137
97.5291816721878
97.4645349702372
97.1098664807993
97.1091601017724
97.1379122420063
97.1540115838673
97.37136753639
97.2558489728886
97.0334987629639
97.1101478766639
97.3328360351359
97.0915575897894
96.7984197220968
96.6216399535063
97.1463588986563
97.1131698790952
96.8094004890673
97.3730179000904
97.5916820332527
97.5964293806712
97.2102875076782
96.8525142511628
96.6298405972816
97.1222282672814
97.6241827986301
97.4692794290848
97.2518603311307
97.1595915625827
97.0667695314827
97.1675681899187
97.3151675551177
97.469744703276
97.3019952737373
97.0545667458944
96.9724321074426
97.187427979376
97.4454811815536
97.669432768075
97.5725483559295
97.3513829182463
97.3430089207991
97.4183581595736
97.467830955048
97.431566099774
97.2360685837529
96.9314690008072
96.5632704451898
96.9115522110035
97.4433906034918
97.6674067433899
97.4034177360146
97.2680076731238
96.8729815709508
96.282583581965
96.6829222344869
97.1388873037874
97.0412098487342
97.2502224217393
97.6087638134063
97.5615917322429
97.4118295325494
97.3742190875523
97.2155651671452
96.8241442820242
96.8743069258927
96.9850303274089
96.707051126355
96.3267473713927
96.2410358071001
96.9565790094652
97.3521667995675
97.3634890588186
97.3759901644566
97.3447070499371
97.1454277114582
96.8688609150167
96.8198117780941
96.5538831266371
96.2983652336821
96.699210589124
97.1197268442149
97.2582897718853
97.1042507569016
96.8318615502356
96.7450780848207
96.9691741520115
96.947786165358
96.9556052934261
96.9376699358868
96.9219828778961
96.9948845432961
97.1626287944861
97.2212857768271
97.2181839249509
97.2431494114944
97.125872016739
96.865713673347
96.8789091865416
97.1692103364656
97.19009971549
96.9577702439067
97.0422778505063
97.3209042928937
97.354108844559
97.2070636425717
97.0963933705734
97.1641641370171
97.2733428830967
97.2130027601933
97.243426764773
97.05008475771
96.7203216719041
96.6508124346219
97.0384029429949
97.2639945116944
97.2450726096059
97.138554179366
97.0875138380662
97.1287865498822
97.1194046319826
97.0890155575489
96.9764287555836
96.8122464991584
96.9155679769982
97.1392613379963
97.2993876303138
97.3338011097204
97.167939405836
97.0366695713666
97.1090441528002
97.0471493896957
96.997832881581
97.0970425752437
97.177166245144
97.210021070455
97.2630876516864
97.2872954166224
97.2151344614314
97.0867666630171
97.1344849074221
97.2192776409052
97.1338857145161
97.0891433460795
97.245658463005
97.3253138201972
97.234475543878
97.1955093667707
97.3432295702617
97.3976409305624
97.3045647615127
97.2341688063347
97.2796204118204
97.3539986780342
97.2687759321828
97.3550308289183
97.5249555129206
97.3374758828647
97.1065776072709
97.0960043079498
97.2461621872274
97.265198998485
97.2680868042213
97.2696841336833
97.3008766491037
97.2876894904018
97.2720901887137
97.2862401267911
97.3022288233508
97.2345457998506
97.2082831650909
97.2901537048103
97.4235215239024
97.3809326086737
97.2404025744413
97.1240865903785
97.0157239690921
97.0108357504354
97.1154633112169
97.1344031792851
96.9999956728008
96.7674303451641
96.6233579715642
96.6118542090803
96.7339812752757
96.6954899598082
96.6658690980018
96.7793829896991
96.8991628225087
96.8456562990779
96.6607978645025
96.6559582193102
96.8068291638868
96.7723579634434
96.7730680428697
96.8942793812002
96.9673959996129
96.8918634343612
96.9613299752139
97.0116337532705
96.895564728452
96.7643785673339
96.9846800078364
97.2592760897174
97.2121531621151
97.119408588949
97.1148274285623
97.1613338096451
97.2989423857671
97.3451199779537
97.2529759214882
97.1547051862597
97.1648187820179
97.1366539565454
97.0946797342732
97.1068175542665
97.1426165760234
97.1155296771355
97.1230894255362
97.0941490940277
97.1253857289039
97.2726981406682
97.2641128954775
97.117903648553
97.1416626252939
97.2062667985787
97.2279979311926
97.1820834856309
97.1525795046849
97.1494894321248
97.1655072381665
97.0965740251985
97.0552217702813
97.1027933342072
97.0696708704137
97.0001743481769
97.0716705256884
97.1176031082619
97.1086886743297
97.0840745628025
97.0523866524804
96.9338317272495
96.8973520088567
97.0020092883896
97.101779989672
97.0698513617222
97.0066211983104
97.0146951729902
97.0470744669884
97.0417622050003
97.0173799679129
97.0107498081673
97.0813750588676
97.0748309801674
97.0605839353502
97.082672854186
97.1404448088069
97.1244156202882
97.044746709368
97.0142569146065
97.0277067347264
96.9605466602091
96.9410417122168
96.9847971159174
97.0007261258554
97.0078274775953
97.1134455154608
97.1963132566989
97.084155046122
96.9660863523665
96.9749377512732
97.028151171533
97.0300239771295
97.0661472704214
97.1382222025399
97.1534260485639
97.1194011492474
97.063930432438
97.0680993412871
97.0701556272367
97.0414909949387
97.0182823639836
97.0408032261218
97.0786925220941
97.0432257827806
96.9816656611673
97.0339021465961
97.0774506412954
97.0435541691048
97.0292912416737
97.0006793334818
97.0117873366877
96.9721819118141
96.9258678773824
96.9895460762838
97.0588191008824
97.0508151001099
96.9811343498695
96.9398490337451
96.9408179480655
96.9363526943486
96.992435266796
97.1160952490512
97.1258967970976
97.1022917534097
97.0626436447176
96.9738037543611
96.9125514971537
96.9699605500838
97.013379251592
96.9420163512414
96.9636925981468
97.0341426963094
96.9767596894035
96.9298528433514
96.975646422087
97.0492861454516
97.0179855815163
96.9512747952586
97.0182660769774
97.1165931925446
97.0265722906427
96.876385212723
96.8383760697222
96.9338975062688
96.9869948882712
96.9965713082345
97.034267047829
97.0633745588625
97.0372500805563
96.9601799922069
96.8768996402425
96.8824876623575
96.8786001091092
96.8723756031746
96.8854028199189
96.9042752106158
96.9216711620827
96.903095361466
96.8864637357433
96.8753107807298
96.8500922552152
96.8291154130948
96.8177151372804
96.831319612194
96.8057654390138
96.8000321743657
96.8269411958994
96.8017585862286
96.7388433329863
96.7268494755987
96.6946569589624
96.6304797627486
96.6323841334117
96.6392296822728
96.6088827932164
96.6344189441811
96.6554100766337
96.6792554572908
96.6309521047474
96.5272184341613
96.4993173511283
96.4524148134623
96.4143136767967
96.4674662420355
96.4777837751388
96.4931042966526
96.5415482481833
96.5605165315989
96.5500074553767
96.5167911322443
96.4308700731223
96.3529786559037
96.3200569067111
96.3431436428049
96.3225208461015
96.2798376168817
96.2768872461816
96.2874485219304
96.2887552289353
96.3277295214457
96.313677127263
96.2887428211118
96.2734523884828
96.2898801689739
96.3105401591394
96.2621575418482
96.2002001067788
96.165339136249
96.1542460199929
96.2229917952059
96.2846198654951
96.3128510328509
96.3833460730692
96.4509974852726
96.47900827918
96.5366917050467
96.5874890885053
96.6062248214814
96.589620888788
96.5598506100226
96.5488104309801
96.5490110873901
96.5557709741653
96.530711955971
96.4004693556499
96.2882110892344
96.2629665152308
96.2169762204072
96.0653699648895
96.0146520104008
96.0133466222354
95.9149556500834
95.8455766278516
95.8343417181623
95.8008452735118
95.7711576605413
95.7169733987886
95.6272687291214
95.5644366876709
95.5669750951133
95.5478027004686
95.486690537214
95.3919884800463
95.3316992483456
95.2998951893293
95.1955067392504
95.0647659069118
94.9640473588771
94.8039252706278
94.6151852874014
94.4172292640141
94.2151242663773
94.1065658002319
94.0477235316398
93.9492321754954
93.907446727643
93.9082097140635
93.9138540760943
93.982203258415
94.1091704249727
94.236334574462
94.3603910002144
94.4595224530685
94.576590857179
94.7386195508764
94.8974490389823
95.0242174630831
95.1806295757202
95.3503232584008
95.4513000406275
95.5119913148234
95.5447753958336
95.6099431298313
95.734921292638
95.7955038225652
95.8187916026791
95.8530389797377
95.8566154582996
95.7841603562898
95.7355011021655
95.7393478493717
95.7418910340175
95.6580613535311
95.5151318126953
95.4122123915626
95.3279521962092
95.210666605191
95.1662937690861
95.2093651458597
95.2509784456566
95.2987041014371
95.3647243043978
95.4507846906086
95.5198639164441
95.5282487269776
95.5430038009328
95.5457672750203
95.5332913077655
95.532279095068
95.5617571195262
95.5717206918563
95.5852489104156
95.5847294833866
95.5995113449044
95.6543794821127
95.7090402719824
95.7524472318678
95.753685431787
95.7088753046033
95.7087246402924
95.7719464847698
95.8469146239059
95.8320001375335
95.8160389570303
95.862636719687
95.8716638866758
95.8818681235227
95.9459569988829
95.9887345818414
96.0445571327507
96.1123415274206
96.1082239271713
96.0645066733823
96.0701627622047
96.0988465780323
96.1281576841453
96.1653267242827
96.189033263443
96.207984560671
96.2208513429281
96.2340941704243
96.2554081357442
96.2696903244101
96.2681183200481
96.2078151995366
96.1477009750548
96.1258919447292
96.1263544528579
96.1221148359564
96.1591985626063
96.2071853453007
96.1864835181083
96.1545917511388
96.1501726928819
96.1544536701611
96.1788197983629
96.2030130963748
96.2158126592854
96.2038539786773
96.1960380157744
96.2201862352994
96.2449907918609
96.2244866686202
96.2117583943512
96.226476800074
96.247722246374
96.2575901902197
96.2752856247118
96.3028162616073
96.3267899920981
96.3474828116409
96.3315013175793
96.2894072566721
96.3020958724332
96.3319890775009
96.3351052817777
96.3319758341335
96.3357156219278
96.3111969569871
96.2804947089629
96.2997172789129
96.2959191377763
96.2702072478548
96.2990614537694
96.3186939127836
96.3197953767932
96.2891936507204
96.2444119080374
96.2407037487094
96.2816152911299
96.3420906836654
96.375584732222
96.3371391840049
96.2918669457626
96.2846694310751
96.3065284452749
96.3505599512453
96.3665147350559
96.3469257645205
96.357736176584
96.3608447363442
96.3736931658306
96.3821056330699
96.4022223240615
96.4331096041592
96.4160169361592
96.39330774737
96.3759799101474
96.3687219793845
96.3907283684588
96.405442174395
96.4202276149737
96.4123135555554
96.4018944581212
96.4284159114516
96.4195436099947
96.3828281901189
96.3861448512013
96.3842436525987
96.3532988001851
96.3460505842486
96.3615758678155
96.3499726957722
96.3523090199734
96.3773791516029
96.3828503107412
96.3715049292125
96.3359833218439
96.2910424414603
96.2916045149436
96.2908693590592
96.2663939160734
96.2441121727536
96.2346470647613
96.2433756879487
96.2636740266032
96.2642284309395
96.2254021214084
96.2107646097448
96.2357881564877
96.2229930983532
96.2110357271473
96.2256439978126
96.2464234316207
96.2580419625809
96.245819461534
96.2407508880926
96.2644391644726
96.2624323257985
96.224548922484
96.2235640331079
96.2806694033792
96.3124591255768
96.3059452015098
96.3348681048134
96.3692474971046
96.3487739447766
96.372630882604
96.4099076294031
96.3819664380181
96.3536165988978
96.3608474827808
96.3864628933327
96.4355423653696
96.4493614623025
96.4402531069528
96.4046307993107
96.3763390584445
96.4180766071873
96.4007166741409
96.3516697295844
96.3960816308979
96.4169052755781
96.4162739600574
96.4387882659823
96.4178808471318
96.4235692438962
96.4894291540123
96.4723785032416
96.4314580710427
96.4365260241658
96.4143533262739
96.3771792359663
96.376975144225
96.4103190543482
96.4528988301698
96.4722033204168
96.4435468681954
96.4022968449613
96.4087928893535
96.4088727090647
96.4459580752578
96.4732631886867
96.3948634140067
96.3803509523814
96.4519533077093
96.47545061073
96.4389865136725
96.3931387706475
96.3831604335961
96.3666902010007
96.3888306069898
96.4594466042019
96.5352696762272
96.5817357668648
96.5264087405782
96.4372130272071
96.4384734061855
96.4636596314051
96.5204913614652
96.5572488456139
96.5257260914482
96.5240204473886
96.5348650701441
96.4881948393576
96.4534892503864
96.4530176074486
96.4831422349236
96.5527747587746
96.5785548797216
96.5343853730895
96.5135776259004
96.5140150951167
96.4944959927997
96.5164142486484
96.5926749471376
96.6336263604369
96.6142607708134
96.5745597271251
96.5460022356915
96.49780972325
96.4818618426807
96.5465834935684
96.6021760682669
96.5707968170184
96.5433312671527
96.5949935065081
96.6310895972012
96.6006051015853
96.5599100986319
96.5276403726479
96.508428800038
96.5604172456697
96.5869408485103
96.5969028410143
96.6273897636185
96.5700096138001
96.5117078658104
96.5681922948669
96.6418771653083
96.6517713303441
96.6327110429003
96.5706507727189
96.5352732619136
96.5581548101406
96.5992873573863
96.6427445088228
96.6151763921348
96.4827522213629
96.4977222544943
96.613778573563
96.5459513809975
96.4163805107502
96.4359226148776
96.4803685454375
96.4776931372186
96.5199364164242
96.5370899573739
96.5153780753105
96.5215371693735
96.5595145663608
96.5468497241532
96.4837363809977
96.4751573734742
96.4887932752111
96.43354327701
96.3372509988851
96.3118332321187
96.3726969886866
96.3565047445421
96.321724094807
96.3520257885327
96.3752418775324
96.455412755755
96.6086427831141
96.5944681138852
96.5893319360543
96.7733606011569
96.8126924742558
96.7342842859145
96.7435089819602
96.9329097189053
97.0579329756456
97.0028587001313
96.9777477157731
96.9346493668398
96.7597487345257
96.4843104388604
96.3596374804851
96.4247419852209
96.4765131915132
96.5801216107957
96.7360715972513
96.8444002701856
96.854614690416
96.7370984083453
96.7417414589001
96.7976028800788
96.6765747247321
96.452539160616
96.2408769120541
96.2768628836963
96.4178626124952
96.5257553069916
96.5200637621763
96.4876501689039
96.5935031231492
96.6471357801001
96.5528522000701
96.5068490222071
96.556647821549
96.5570134757349
96.4980052027848
96.4709777171905
96.4371053720244
96.3673871642969
96.3603137842634
96.4003135707807
96.4035429682463
96.3347643367931
96.2663839661785
96.33731206941
96.4737240423074
96.5372978329504
96.562921061033
96.6547406720805
96.6839690002202
96.6786822706873
96.7827836290434
96.8289287307965
96.8128193779465
96.8251719450027
96.8239752851663
96.9130473538466
96.9725556901217
96.8396339948136
96.7455955631234
96.8530651984641
96.9747247197272
96.8998170560168
96.8049963032284
96.8786848481338
97.0566605478743
97.1499416660853
97.0822563584661
97.0327661734143
97.0202883986406
97.0911497391459
97.1601483370765
97.2406268171971
97.3873837564632
97.3459307815277
97.2862511766442
97.1942219614601
97.0038361617826
97.0439949850355
97.1986363321407
97.333372788453
97.4120075660431
97.5007076526988
97.6048955142729
97.6085965580402
97.5407208563927
97.4808015153408
97.5985194851055
97.7221167454871
97.7875916061482
97.8851230937968
97.7879258676679
97.6466288351114
97.753538782681
97.817829981531
97.7122226828224
97.7936247660047
97.9366682500205
97.7697221028904
97.7110615151139
97.9070142258882
98.0214180029181
97.9722780289481
97.9018778957891
97.9448121717705
97.9797012268688
97.8725657087483
97.6438610371464
97.7523901834146
98.2380367238227
98.2202110356093
97.9063809752246
98.2284909604377
98.5374283892644
98.3726543738661
98.2893517781264
98.239947043866
98.0571876490371
98.0307510893841
97.9807780284821
97.6965664464156
97.6453735596625
97.715105954937
97.6659267928149
97.6766906463334
97.7031379721144
97.8017752693493
97.7662446031239
97.5414411577639
97.4029330811131
97.2795881162361
97.1792974547492
97.1797511998639
97.2416775832787
97.1813256608808
96.9790709974115
96.9422552042999
97.0244820793098
96.9946344193066
96.9564150373002
97.0158476583502
97.1146895140321
97.1410254314194
97.1402485564348
97.2390336531785
97.3133610111398
97.2549546255094
97.1312716013622
97.0423350390107
97.10333702073
97.0565983721648
96.9030782707565
97.0910630966024
97.3222431883508
97.228917632801
97.1725678091721
97.3137693802385
97.3662508126713
97.3146006555692
97.3666409277728
97.4694981750319
97.5812095306975
97.7715779449329
97.7204383877799
97.4763013481957
97.524496961398
97.643652217931
97.8359928801166
97.8801319133168
97.7288319532571
97.9295132759431
98.2062250727517
98.1008769240359
98.1129619508012
98.2850966622657
98.3678528143436
98.299930426173
98.4342453092047
98.7170282160377
98.8911464149794
98.9955845866208
99.0505257485822
98.6312149465874
98.2207814062592
98.3302580074418
98.5139284478785
98.5637285814519
98.4077300856692
98.5567902668409
98.7052468021508
98.4818623476035
98.3645714170677
98.2444362495357
98.3788180278408
98.6400151160773
98.7588841755183
98.5853155823654
98.4299498043088
98.3750259826967
98.2330399740332
98.0247977356439
98.0176194157252
98.046700121373
97.998273942675
98.0034787244307
98.1167199221887
98.1583100687361
97.9238974354494
97.8710864960873
98.2821573190171
98.5290742523416
98.7918584153767
98.7511253228995
98.3465850514687
98.1411678662102
97.9121604040359
97.5320502819785
97.4945054290545
97.6934189651032
97.7886157135318
97.6691509878703
97.5391037302982
97.4878859827213
97.5323918596788
97.4604235451407
97.3312808979484
97.3489088580935
97.3721213543609
97.5156709674433
97.658414663671
97.6376598766286
97.5775879970867
97.5440361703762
97.6389371190461
97.6373432980487
97.6556546217099
97.7290684105137
97.7067194322572
97.6268193019264
97.6301529791057
97.4446840298135
97.5082925942837
97.7685644531396
97.8248915998427
97.7769722628574
97.7008134693008
97.752620046984
97.8141113172355
97.7621840900076
97.8037884205203
97.8863530180065
97.8720626752814
97.8181144097207
97.8040628125144
97.7919293028216
97.7836984109706
97.7978573921894
97.8907107510032
97.8966429793305
97.8944028815015
97.886336001446
97.9150452645888
97.9051339970791
97.9207607729553
97.9732156587989
97.9275455152402
97.7185469211731
97.6567692396009
97.8715747565682
97.9772723419111
97.9227156645692
97.8393633737682
97.7998466585029
97.806791999512
97.7982862909704
97.8005158878768
97.7287205148379
97.6404521263655
97.5994277430996
97.5557583944818
97.3972435156551
97.5728574918966
97.6255283541146
97.5326454217668
97.4419794509641
97.4251868444081
97.3062625692375
97.1489856096387
97.1227412266815
97.2177262549624
97.0979707948913
97.2149305123866
97.238019776897
97.1938336941433
97.2530748280827
97.3141219892646
97.2776481062384
97.1742223844942
97.152540861581
97.2309867527194
97.2349316730361
97.2078756091836
97.0841459915499
97.0113262682421
97.0832105301625
97.199751630819
97.168886059329
97.0506023032914
96.9933519146826
97.3011189458246
97.3499928436576
97.2158321627472
97.1435696045112
97.237084971112
97.2010121525341
97.2475878973734
97.1822533209632
97.0019748189536
96.8761769844635
96.9263122991612
97.1351994909075
97.0883872619237
97.1453804896199
96.9855806505602
96.7474568508474
96.7323101545811
96.5986968236357
96.3283764629151
96.1345955203555
95.6198016328967
94.9315143827319
94.2728435681943
93.2812676761156
92.0172314354546
90.237891452137
88.2019986887203
85.8559394196045
83.425418200806
81.3573973058954
78.6181510796133
76.4534000683751
74.7160551474917
72.5427453936751
70.4903105026917
68.412632422134
66.2668287501154
64.320945029256
62.1963590058324
59.7106039148145
58.5008806808966
57.9513802336063
57.6526653005203
57.6389343936188
57.939379210939
58.7139343973157
60.5058880144242
61.7948376346665
62.6412813965531
66.2552028040922
68.2523848866235
70.3060054517635
72.7360061119988
73.0358539019863
73.4433903784969
74.1553121084105
73.6266489287509
74.173887983481
78.0280937756522
79.0072281276952
78.9917399165878
78.5512913896851
79.4338677190339
81.0705405914157
80.9257115355613
81.6862295265486
83.7996583490912
84.1965033839078
83.7210570189554
84.6364175021531
85.9142063260785
86.0733981859388
85.2062813155732
83.1712771703445
85.7014629989262
89.308874856366
88.2924905753497
87.2326154905608
88.9087896355373
89.7526244198141
89.427636544752
88.9212786758873
88.0634593890067
88.0566643508252
90.3928537495861
91.0570082257717
90.453987353312
90.0461566332331
90.2825927372711
90.2865366339887
90.704732369207
91.3586490581578
90.7887657481864
90.0584452430875
90.8644582535041
91.3193837015363
90.9523056279637
90.8557125805353
91.1376597196657
91.5545400218817
91.7975956563662
92.0919246186411
92.3838783098393
92.5974574696083
92.6786942932933
92.829789532985
92.9882060716337
93.0714229440307
93.0347841563675
92.961966525538
92.7237160671821
92.3038844891038
91.6905508397318
90.9663792749812
90.0078693582399
90.0296381146517
91.7354253061279
92.1639090990292
91.7902486363522
92.4569389851723
93.2653107172994
93.346671732962
93.3621793212159
92.4751371377027
91.2340578897857
93.6283163169139
94.7471254849343
94.6227259230418
94.4902950536637
94.2254601052757
94.4442769766266
94.1800971663384
93.7527005415368
93.5357045164071
93.4338658793286
94.7621781879056
95.5160710668603
94.9175172960393
94.4146821027711
94.8544528388289
94.7484301556561
94.2793338474815
94.1029140132174
94.1931452675481
93.9327259922534
94.4520621959293
94.7486854815479
94.6879856670149
94.992193909293
94.6927402789337
93.9026439913232
92.4216748992413
90.1785721762978
89.700017595609
90.4547617892279
91.0783377526264
91.8702025846425
92.8636047970871
94.1834163758584
95.1209671751491
95.0123083480557
94.528167022784
94.6999425082274
94.9307494779541
94.7992891228441
94.2821656643078
93.7084629753053
93.2556103916327
92.5522651898054
91.7888615075416
90.9910433269311
90.7604860568884
91.3853029385413
91.4814161089047
91.3472410030802
91.5140225159342
91.8334410135537
91.2523612736725
90.2455769413083
90.0100563608256
91.081773921219
91.0822369259371
90.8523882351941
90.7260341331994
90.8752276434107
91.3281878946257
91.5002830062751
91.5649621028793
91.6200678826168
91.4073428457243
91.7619799035882
92.957016925236
93.3386985095898
93.5443871936374
94.0558726503056
94.5003287387382
94.4912283650495
94.4012361979215
94.1297062929033
93.2715489927223
92.2514303864562
90.5001352532745
87.6359823066582
84.1934001086419
81.177834611262
79.7045000146145
79.7900554524397
81.5893272741564
84.1316730246387
85.7798382971876
87.0718250845908
88.5257105071878
89.3875823565456
90.3196756234361
90.8685840087273
90.8240698835197
90.6704770682813
90.9257602254322
91.1799285873369
91.1034435641996
91.0662792615616
91.0257808207395
90.8893690386228
90.5436568597462
90.4723830118966
90.5045670625754
90.432572808451
90.7385501123543
91.2398790412528
91.628175468935
92.3229770548372
93.0235666784484
93.2515912483514
93.1501411074936
92.8997366780662
92.4143893060049
91.4932156509163
90.0018906777554
87.8337813568503
84.9329839614045
81.7751318572266
79.0781207677953
77.7904318871325
78.7632014355306
81.2051201226183
84.2249345874327
87.1771875715472
89.574731400415
91.1798633483629
92.0494344095742
92.3765239415433
92.3589290567403
92.152725308387
91.8818579225898
91.5954539881143
91.2150299646921
90.7446108345569
90.2730267048471
89.7441935141865
89.1511907591424
88.5915740312681
88.0249209668262
87.371542481794
86.5426028655235
85.5207422191567
84.3404646778705
83.1102189145857
81.8565830931122
80.639064727675
79.4617916457874
78.3372069076116
77.2609339430863
76.1632616104015
75.0520343935433
73.9512139528169
72.8604137092728
71.7683445359371
70.6872293709502
69.5772140149759
68.4204858867389
67.2191187263911
65.970291455063
64.7605578614414
63.6585314104661
62.6693950329794
61.860106594017
61.2338687139452
60.6772187765219
60.1057955962292
59.4779971813498
58.7871025695488
58.0662346441021
57.3332017031931
56.6656624749414
56.1446050360468
55.7913365156057
55.6305693447781
55.7048478956503
56.0390780378975
56.6097115786399
57.3438056086445
58.1863040109043
59.0511945745566
59.8958674486145
60.7321846547589
61.6216487094504
62.6190686532554
63.7377001679161
64.9576874815826
66.2067533328286
67.428173935811
68.6364787019641
69.8066638903388
70.9481309601827
72.0610262921592
73.1440900667463
74.2171115905635
75.302666489376
76.4035554744194
77.4766631913056
78.5023974230133
79.4791776197762
80.367840059375
81.1466852466279
81.8104717127058
82.3369322951205
82.686733802866
82.8525802357938
82.8566300466296
82.8119925004566
82.8372730391151
83.0574979797417
83.5764900152459
84.3733826788036
85.3223376123526
86.2090984520686
86.8749629901955
87.292606143876
87.5464489913398
87.6780470488857
87.688104320825
87.5549966510489
87.2471024538126
86.7918729257338
86.2261904179297
85.5332283040788
84.6973852649054
83.6977849948736
82.4722579229127
81.0381786733689
79.3608061207574
77.3885299870002
75.221735441372
73.0515628060436
71.0386287669111
69.2785654923181
67.8078414571866
66.5810793439005
65.5299823499721
64.6308566482222
63.9393598280537
63.5498887849901
63.4535092984335
63.5320721816481
63.6020260931028
63.4939311580055
63.0604536136814
62.2597143814555
61.2442093835858
60.1855573875202
59.1703933787985
58.3169675193427
57.6797446018606
57.2344146533468
56.9477659827854
56.8193285281056
56.831916762111
56.9398476906228
57.1128782646443
57.3747977888054
57.7621299691481
58.3103561729432
59.0501442358995
60.0066026808395
61.0875047289386
62.2096650823483
63.3477051529984
64.4832738317744
65.5771972266583
66.6056682961969
67.5850422174804
68.5161041681265
69.3605085691232
70.1138688828037
70.7198524285575
71.1490004059299
71.4343501752852
71.5973302602593
71.6744521722498
71.7249869075734
71.7870394833037
71.8927796989297
72.0921688306564
72.4428424695944
72.9305633898766
73.5399341273138
74.2134229627091
74.9412480999322
75.6239960341348
75.7546903698187
74.5032492505458
71.7573766097361
68.6230448344157
65.8625996590849
63.3903938868672
61.6687369499665
61.5784248035519
63.185202721389
65.530392965871
67.7135620496623
69.4375463392235
70.7768767834922
71.8342273690553
72.6914363559676
73.413950105597
74.0418440981225
74.5991523773741
75.0853820344996
75.4685482029741
75.7207285687432
75.86767500509
76.0272899297114
76.2256920195739
76.3831946397154
76.4037212363166
76.2085172944664
75.7434679412631
75.0452055425093
74.2562225052788
73.6038450980758
73.2663957843832
73.2856905042449
73.6163210880154
74.1419868008408
74.7428647478446
75.3691296011309
76.0004024154856
76.5788322318456
77.090641483778
77.5718162929879
78.0107560942485
78.4056599180272
78.7697087909516
79.0957092577359
79.3792713088581
79.6426928061358
79.9087737467542
80.1729542826151
80.4004904791602
80.5988030842342
80.8217717808592
81.0532348087154
81.2627974983957
81.4914591492342
81.7079109947352
81.9208858389864
82.150440430063
82.3569502853622
82.5387710744782
82.6986756575599
82.7567128454657
82.7791436823273
82.7885313030616
82.6443822382608
82.3897958166137
82.1045373005167
81.8251947063262
81.5906239728776
81.4441939929883
81.3834031888149
81.4026446698428
81.5457320615394
81.7659036279948
81.9441726192897
82.0194979044213
81.9550678743557
81.644772995928
80.9904882291909
80.0035533027929
78.7134086562436
77.1484314391372
75.1061308243282
72.2669311614238
69.7130978002962
69.7001082027845
71.7586749170843
73.8656725818675
75.3336808231162
76.2307316750058
76.7630981509546
77.090685366072
77.2420875883556
77.1889003533218
77.0165146997928
76.7114269401164
76.2727858952386
75.8229814709511
75.6212709268749
75.8072933233217
76.2410916278572
76.8192761127327
77.409536005986
77.9343235402518
78.4917562898042
79.0444007301765
79.5629906926952
80.0407393599924
80.5098223591094
80.9248330538537
81.245597389327
81.5601002087351
81.8421782308689
82.0030375280369
82.1575709056421
82.3114988046853
82.4674302460672
82.6607052569659
82.8240967279928
82.8776444100417
82.9730182591112
83.1736584247502
83.3773893639486
83.4635319619526
83.1466168333591
82.165750886852
81.0519813997673
80.6774699035235
81.1275486368312
81.9102112278429
82.6489826595402
83.3833066333881
84.060572636868
84.6381975767329
85.1401536731766
85.5701714873202
85.9825429875465
86.4434251919925
86.812599525648
87.2528615906133
87.8083683971944
88.3183202151899
88.7720059126814
89.1893845083911
89.5875458774843
90.0162998547241
90.4469761190659
90.9454296183599
91.1956420786121
91.4244373217935
91.7363183701427
91.9138394885005
91.7907351848207
91.1606879076729
89.6049643671797
86.9633199584355
83.2469433264328
78.9715515314783
74.6477952287617
70.4787883708624
66.3794238525644
62.2171846639451
58.2641613822762
54.9169141864669
52.9831896149989
52.6587742399524
53.3598119176388
54.5152647474251
55.9418183611026
57.4206788196943
58.8789338654077
60.0364101347282
61.1790391526413
62.491891373736
63.5197836775941
64.3813653347585
65.6873669444139
67.0070918148029
68.2976612968346
69.4902086292792
70.3671514976131
71.1545037553836
72.0369292050208
72.7627980525873
73.1673194072708
73.3028221825174
73.5269899522225
73.8419577191588
74.2661899917204
74.876558408205
75.3181863044028
75.556090357409
75.7318927102587
75.697999946425
77.3895463821731
77.7774904409161
77.5783017072844
77.7993875302771
77.9095366645009
78.1075259026324
78.5057249194774
78.9824925817739
79.3803178459017
79.6612907006673
