1798
3999.43349933624
650.420452594757
1
128
4
96.9028329549661
96.8622919781135
96.7991657882595
96.7500490014159
96.7699525417868
96.8069054111351
96.8906222054968
96.9099075035554
96.8555322585743
96.8668325729866
96.8600182209613
96.8279063806149
96.7725893391378
96.7112497335228
96.7579932801742
96.8503944206749
96.8245782457761
96.6925649144885
96.7257724394509
96.8208151964994
96.8191882321151
96.7635197887422
96.7371790521629
96.7735921710624
96.8152367637306
96.7732431149531
96.7488919349076
96.8050554015103
96.7814250206719
96.7764237284051
96.8170803108771
96.88123210039
96.957314217547
96.8227117028541
96.6382305702113
96.6678019294038
96.8056085397384
96.8257775943417
96.7845390143819
96.7956143602815
96.7117395166533
96.6515988007621
96.5093752421353
96.5836538651765
96.9049732975515
96.9819992471508
96.89005979908
96.8018558958898
96.6036928813102
96.2718317055365
96.2527307044196
96.320484889008
96.5489338151105
96.9585216642382
97.0101103946141
96.8168878734771
96.5757405141392
96.7202700735905
96.749473824936
96.5093143737992
96.6797554729901
96.74677338547
96.6364847629787
96.8260059955223
96.8902787783542
96.664737642215
96.7215050635406
96.4044782629629
96.4160939282072
96.7029260817378
96.5985307549165
96.5983914605416
96.6287344035144
96.8381734171917
96.8996101807613
96.7249872237006
96.1246213938021
95.9717793700607
96.4909990813035
96.9528273515962
97.0987376683885
96.9573051912531
96.7589976123864
96.5589749919912
96.2847610740609
96.2082309432888
96.3185109485527
96.6073632322872
96.7327207402866
96.9273469322947
96.8301420318557
96.7879005161936
96.8631295796695
96.4111027675309
96.1009553221176
96.5168309039873
96.4841454905015
96.630700622745
96.8986155529874
97.0136366806384
96.9480345945605
96.5954109159091
96.6027925125204
96.6780786968879
96.3391497357675
96.4600310770738
96.7487964035326
96.7691000453487
96.8741196530486
96.9521849207414
96.916942378416
96.8296059326848
96.7899716977394
96.6965689285531
96.7094324490342
96.6780597448247
96.4701481530336
96.5195303213348
96.6817408768584
96.8107199216721
96.7519608166903
96.5365501849016
96.5905779370164
96.5457590330978
96.560005394667
96.7734433138101
96.639703580631
96.486793625907
96.4894092123759
96.6062738211444
96.4529159703159
96.2054875591214
96.0300580292076
96.5499036613394
96.4796395183367
96.1471368313921
96.6427423147624
96.8154912829955
96.8506546972358
96.5826740110287
96.3739756720827
96.2405157547006
96.6146655134826
96.9121081148492
96.7528742864912
96.6238788782715
96.5326290060925
96.4483607811112
96.6001532281267
96.7178433341777
96.7888007687319
96.7136258604146
96.5301229426153
96.4126142621721
96.5406943428695
96.7179686094745
96.9260346254042
96.8509411874851
96.6612136725489
96.6344118177949
96.7329325073148
96.842379110128
96.8446455290909
96.7121235852606
96.4236357749019
96.0464246672812
96.3883167082595
96.7981526293414
96.8783289769982
96.6713395392293
96.6562151267392
96.3457684864015
95.8437380871367
96.1509128962607
96.4706977376051
96.3991383040904
96.5607360750539
96.8582198155682
96.8610488225874
96.7587263918224
96.7426619085578
96.6247962155649
96.2651630476826
96.3173443496588
96.4400019103769
96.1526030017225
95.8017954836525
95.7268206906871
96.3214457217039
96.6906233905979
96.7022976350673
96.6629341323248
96.6623832378446
96.516602786207
96.3207745972375
96.3823322991482
96.1054696711255
95.7416493345017
96.0030865207949
96.3763380447158
96.5533478575822
96.5380275583667
96.3653693111641
96.294777553515
96.421153043601
96.3975897897583
96.4046553717161
96.292119872451
96.2445769412654
96.3189419854071
96.5092473856215
96.6256952328901
96.6449369690486
96.594077198735
96.5115860088238
96.3375202564584
96.3703845601472
96.5893537108395
96.558032847436
96.2568569101278
96.2671089918127
96.5344126970946
96.5836942649063
96.492910171461
96.5090066747965
96.6080300465218
96.6245398481347
96.5866455148761
96.6722047440215
96.5178992459107
96.2132206058493
96.1071935813117
96.3172341756317
96.5830827115841
96.7060639640963
96.6105714936071
96.5555708874559
96.5321959181657
96.4714735556312
96.4534477186532
96.4477203892168
96.3397253465578
96.300660942173
96.4951445936163
96.6858845743689
96.666675010868
96.4569374026345
96.4406144747303
96.6129724618007
96.5993313322216
96.5128920379136
96.4314187674806
96.4210331355306
96.4882240855389
96.5868861233598
96.6426227096012
96.638796988426
96.5599693198149
96.5673157461792
96.6570318781495
96.6117976781425
96.5375118104245
96.6693147157931
96.7374795920442
96.5931649033022
96.5349212302575
96.6734823192402
96.6739192941603
96.6304338412538
96.6303311897415
96.7423877395068
96.7515144330526
96.5582384748998
96.6198995223331
96.8245505885772
96.7546133951162
96.6080787402285
96.5940215719879
96.8010037688685
96.8505472552644
96.7388668137712
96.7132624444738
96.7431896913529
96.676900897157
96.5870363316324
96.6600224721367
96.746319564714
96.6831824020531
96.6649279077386
96.7515169979398
96.8470512643186
96.7565632316896
96.6485374177671
96.6159320626546
96.5050435339821
96.3333749041953
96.3107067789189
96.4832293035674
96.5680063184776
96.3360444269396
96.1383608010489
96.0748778770274
96.2033378492548
96.2578011993094
96.2442694089535
96.2528556489007
96.3058714473823
96.3476083912456
96.2356523796503
96.1410022733325
96.2536836876993
96.2776734131195
96.2455953464501
96.3072400707929
96.3726640902373
96.2902645534383
96.3397066968694
96.3894485387554
96.362418463096
96.341275822876
96.4406082813279
96.6218773242879
96.6890211777445
96.6610116902652
96.5397113425357
96.4430966684516
96.5538540139427
96.6557500524779
96.5999339183208
96.5247983160125
96.554616196569
96.5075742695429
96.4754665248837
96.5393578213793
96.5431674844778
96.5385344220247
96.5733961189655
96.4981565470535
96.5493421342166
96.7008517443242
96.6541886011479
96.5566367644656
96.5659346784172
96.5662989099416
96.6034634447675
96.6315002613286
96.5843974080938
96.5024703835022
96.554728860139
96.627402039524
96.5625499205912
96.5562154412219
96.5600806094179
96.4141724576373
96.3941551277882
96.5129788857309
96.5671355947856
96.5483414455669
96.5413115170523
96.4449201573291
96.4192537408294
96.4574281635398
96.4928495809788
96.5228341504125
96.4760750644832
96.4398098909875
96.4441485621496
96.4255830793529
96.4156831897075
96.4527943573478
96.5011471222552
96.4142774836053
96.4278709342654
96.536338729271
96.5983106127776
96.5841818394106
96.5255015609788
96.4847355569608
96.4799118776174
96.3839769769026
96.3543906332913
96.4769289789845
96.5362956094441
96.484929834074
96.539579520328
96.5832905999856
96.4733528482365
96.4057862378485
96.4750876537634
96.4424511791129
96.4205207911995
96.5512308749683
96.6106545662471
96.5694150458843
96.5534675207672
96.5508048891788
96.5283298455655
96.5293362538373
96.5053872661012
96.4505203997336
96.4373061027995
96.4411397375637
96.4808081010528
96.55133142087
96.5512530987941
96.4818615549116
96.5304910558066
96.5552703823486
96.4681903973549
96.4515897565389
96.4596760152828
96.4696893053485
96.5003560298369
96.4747268895306
96.4245149538249
96.4045286510775
96.4055449693764
96.3822145727235
96.3838075542715
96.454837425581
96.5175445739289
96.4859833334475
96.5059933332929
96.468765277932
96.3529320971862
96.3648486904778
96.4663855297854
96.4930698606446
96.4682328107956
96.4640190786527
96.4458631878696
96.4059226713797
96.4584996412491
96.4759693746659
96.4268981426426
96.3718657897023
96.3388429295168
96.4191944287395
96.5031183049917
96.4479427770059
96.3881225925372
96.4358744155136
96.5198584561807
96.4901262889678
96.4390513155265
96.4362471948921
96.4756368379633
96.4720424983862
96.4255376455721
96.3746836766604
96.351886484841
96.3013163381956
96.3203721440023
96.3661742291113
96.3902889348322
96.4382352524877
96.4737278858746
96.4198418154836
96.326633342205
96.3193358752026
96.3781843421066
96.3759426521725
96.3517349229593
96.3002183821339
96.2894973825181
96.3538873685119
96.3694999432466
96.2529575920712
96.1754985593416
96.1983304862802
96.2126047865539
96.2110273882209
96.2010364806331
96.1193478341038
96.0962825803876
96.1048291906031
96.1349409633762
96.1749303575787
96.1420270761796
96.1168188977675
96.1137391347926
96.0702172430167
96.0705412210911
96.0560115724743
96.0595900717894
96.1036743649523
96.0828689574021
96.047943916226
96.0539721269432
96.0333875405546
96.0232539362228
95.9594661016072
95.9071191942574
95.8892392827956
95.8726836009866
95.884926327556
95.9025539162057
95.9172596810702
95.953629091528
95.8881632725605
95.8283615576053
95.8714771077947
95.9161095964759
95.9003481558809
95.8831573414306
95.8560096637777
95.7822734203822
95.7282125567198
95.7708312548526
95.8514690416276
95.9237006951676
95.9827684938894
96.0282298196897
96.054276536044
96.1149917641236
96.1537625210472
96.1371064315542
96.1298336368953
96.1364258802633
96.1005967020997
96.0638074011878
96.047171368048
96.0275137500384
95.9733451936662
95.9021832443154
95.8888279735084
95.8985957504827
95.7976872151546
95.7079000943434
95.6502493049281
95.5729593672187
95.5399383599465
95.5062381425165
95.4650710750584
95.4936978083936
95.4730022731603
95.3828541961537
95.3641299536317
95.3527172595496
95.2713385629984
95.2379862890627
95.1911690612161
95.1382147570516
95.132682677068
95.0350235713933
94.8716103098025
94.7798513352231
94.6748930559268
94.5256508460035
94.3582413766216
94.2551728554175
94.1614409309723
94.0427977477919
93.9754456217355
93.9765834988818
93.9720904887394
93.9499777613986
93.9598879505501
94.0534877296948
94.1868291025715
94.2752313264203
94.3438211078064
94.4749469641469
94.6152123724999
94.7321233568994
94.8292725330272
94.8863537115694
94.9981769739508
95.1741075549467
95.2462429529131
95.2277651340367
95.2477348308743
95.3527675082266
95.47274981469
95.4887664682874
95.4451782152051
95.4684329964009
95.4574596520447
95.4286740358422
95.4157101043618
95.3954579275326
95.3278309545484
95.226907513001
95.162347578932
95.0796842448561
94.9800283296299
94.9423484099225
94.9482684664535
94.9804938367732
95.0363777047549
95.1010085066203
95.1804247778123
95.2639281675945
95.2467963311708
95.1818986935289
95.1792913586618
95.2164937673772
95.2594073345979
95.3323070331367
95.330226965512
95.2630570904632
95.2575135431217
95.3312612362941
95.3684060501144
95.3644183718146
95.4000659848591
95.4483195125584
95.4356197298722
95.4154371194064
95.4045310863306
95.3992699009946
95.3918091937661
95.4102855067954
95.4467465732959
95.4650426129498
95.5316747457264
95.5905939422
95.5883800706315
95.631206381398
95.651490045571
95.6194013878958
95.6261840037104
95.6953871576373
95.7349540018883
95.7260297962579
95.7087954363154
95.7073143171131
95.7296229406049
95.7555243656025
95.7699985899644
95.7788487924322
95.7928246083649
95.7894567305416
95.7507888757881
95.7278726708936
95.7226687278971
95.7211790294678
95.7127665587469
95.7014104498404
95.700271876579
95.720765035413
95.7671338695156
95.7735005105579
95.7411883343139
95.7459612385126
95.7605064115761
95.7988895787735
95.7857301845519
95.7552276048764
95.8014316921348
95.8234972157212
95.7954575136461
95.8030818678077
95.8040597494025
95.8051648746116
95.8187880698176
95.8190418813903
95.8353851140582
95.8779666165329
95.8961402148144
95.8889276920341
95.870789504211
95.8613080101458
95.8709512473074
95.8553735250973
95.825857836328
95.8546376760959
95.8941745235066
95.8616633395929
95.8345707932647
95.8395682782604
95.8041021150187
95.8414132293721
95.9196063864967
95.9041096235845
95.8384975614666
95.7961850811422
95.7813417414607
95.7943246707953
95.8352651256056
95.8909642214219
95.8877573171754
95.8556710513636
95.8437766256195
95.8518852360621
95.8933333760892
95.9162522479531
95.8968894463503
95.9110726670961
95.9279014283438
95.9160989757247
95.9134803514718
95.935577525852
95.9674285430413
95.9874733320216
95.9622528810157
95.9071643388127
95.9124188256441
95.9634489135278
95.9667942063894
95.9617089560048
95.9584669954572
95.9215756124939
95.9124555516274
95.9428285700671
95.9465704117332
95.9420610405893
95.9240487024998
95.8939608971571
95.8938575278146
95.9100642975079
95.917852946355
95.9165875625617
95.8918542066208
95.8857875296668
95.8979536332331
95.8977766666009
95.8690374641626
95.824705420368
95.8107379050994
95.8065699544586
95.7940520447634
95.7948767972296
95.7821774907557
95.7790770455297
95.7926091393588
95.8008251428731
95.796221005051
95.7950677580524
95.7780094449647
95.7765311222057
95.788483382297
95.8067887989459
95.8329187124612
95.8034462797192
95.7557052369072
95.7953612802657
95.851098544551
95.8091339571512
95.8013593119644
95.8603015940598
95.8763050826643
95.8895054607686
95.9156907195828
95.9175232047703
95.9011185993855
95.9107645419214
95.911807620515
95.9436109463169
95.993175346757
95.9680223959284
95.9207714741206
95.9431343868604
95.9973364595009
96.0280050031311
96.0073608289938
95.9831804090775
95.9896568643636
95.9720231044709
95.9414335342211
95.9474270082949
95.9551307224959
95.9710125033175
96.0021921772385
96.0097561231003
96.0325648628973
96.063951479936
96.0285635051136
95.9741554979017
95.9728935752802
96.0486849815718
96.0759964767448
96.0327137994711
96.0163931913056
96.0078998053307
95.9726822513482
95.9650052876735
96.0104014581219
96.0118565308107
95.9869901619065
96.0399493035933
96.0497646488005
95.9907834443458
95.9612544640391
96.0123140753929
96.0793290498112
96.0641913287067
96.0330538210512
96.0264215143504
95.9837155356974
95.9752271805724
96.0291770846511
96.0996061029066
96.1381126575322
96.1297867540664
96.0448216565793
95.9586527049232
95.9612077257131
96.0291608793356
96.0779574735106
96.0913807708442
96.116519774647
96.0735370775089
96.0452130864394
96.0948013341668
96.0695261836128
96.0533730372327
96.0827575995352
96.0581841444764
96.0179454681761
96.0453122464986
96.104916739023
96.153797552322
96.1571971613669
96.1466471189819
96.1840760904693
96.1717639745527
96.0955161479154
96.0865669104368
96.1194946531204
96.1660738025366
96.1953725453989
96.1324298881926
96.0236274856047
96.0131902051093
96.1124781625994
96.168680435819
96.1542965893259
96.1242791355663
96.0912311961539
96.0793906845021
96.0731753789639
96.1097409680465
96.1772638482352
96.163613102992
96.0915500005483
96.0882251266672
96.1507355028321
96.1925794382923
96.1897284255431
96.1504562001066
96.1289869151138
96.0974636352475
96.0616781996038
96.0863779414792
96.1451986921366
96.2148427736918
96.1668019596296
96.1207785070501
96.1624102181172
96.1081649356473
96.0124366995456
96.0234427703647
96.0796012568039
96.0914243918261
96.1065753719217
96.1267154757243
96.0846591938831
96.0446542476421
96.0548858067853
96.0718180545996
96.0707289325028
96.0750929565016
96.0834313309847
96.0657713640015
96.0100472796221
95.934521692962
95.9509206802201
96.0073735957683
95.9864730430214
95.9900841678855
96.0693933705194
96.1566990046579
96.2591667814438
96.2689309010826
96.3171051559681
96.456479766128
96.4577364467689
96.4111588726734
96.4056391196233
96.4855221355225
96.5135962459784
96.4584498825945
96.4901196892455
96.4719821485
96.2746831986461
96.0248128956034
95.9546887623962
96.0436560420712
96.096176535131
96.173729955185
96.2734984315043
96.3566979299227
96.3852049045306
96.2714829317404
96.2558055141748
96.3167024631097
96.2120323742826
96.0098878612565
95.8520181981161
95.8948168955482
96.0007779186626
96.0612433247628
96.0594039110672
96.0709310629987
96.1183815551771
96.1363803090437
96.1198938695804
96.1077648786514
96.0981750308221
96.0554326083638
96.0435170203024
96.0535091922817
96.0315200935401
96.0310403538131
96.0291180022598
96.013554252615
95.9601421232105
95.8602270026697
95.8301026113626
95.9741869954673
96.0804995945562
96.0440493417744
96.0169817015372
96.100492172562
96.1208074549018
96.1875587331284
96.3186485720549
96.3467087989219
96.3588207440862
96.3608376824674
96.3625831392002
96.4560145691415
96.5283279650517
96.5048476606499
96.573383064098
96.6237123605367
96.4654632494612
96.3669766918392
96.377977094955
96.4452343077862
96.6074982040903
96.7607172916169
96.7324251996418
96.7365231074914
96.6375123464816
96.5420404760063
96.6882800739225
96.7213610258398
96.7910922057476
96.8272830523335
96.8256078462072
96.8287509991589
96.6392490924754
96.6326740256912
96.7867358395655
96.9541484065021
96.9886708390485
97.0240689696045
97.1962743383419
97.2538842646834
97.1995371197924
97.0625967706739
97.000858611728
96.9966312707417
97.0382745620594
97.2128348142701
97.2028133527571
97.03603044137
96.9514068117781
96.9765320489375
97.2854021521611
97.7286321036447
97.6988674391765
97.2967903233474
97.271208317356
97.3634100220871
97.1977361511106
97.1521633970782
97.3861686665309
97.6191044096373
97.612054900341
97.4026741818624
97.2846964180689
97.4759211374852
97.6887697407721
97.5929322889791
97.533171569619
97.5563587117516
97.7222971704479
97.9139698457679
97.7078375640876
97.4974975147267
97.3237098517272
97.1575366314521
97.1763960242402
97.2232130257429
97.2385102373184
97.3493324258609
97.3791862052073
97.3278106219405
97.2828573004597
97.2077297200262
97.1309604463704
96.9840162119001
96.8283595868072
96.7814041307357
96.8273179558454
96.8438952206696
96.7902630233662
96.7151947626606
96.5920835875321
96.462876197675
96.5081632652435
96.577404409478
96.5556789262898
96.626878973071
96.6763607221105
96.6110639297822
96.6002564923763
96.7284309170838
96.7762423324009
96.6541861641521
96.6238614002043
96.6333593048762
96.6302031618237
96.7145999375516
96.7600116999921
96.7366479418915
96.7345337762237
96.7066762877644
96.6946368035655
96.685953528362
96.7086157680925
96.8024926227668
96.9214803269857
96.8962830775101
96.8826751439999
97.2030807868589
97.3077788224435
97.0668782110899
97.0934613728777
97.2052794531267
97.2945177806489
97.3014591967249
97.2504907796435
97.5675521887582
97.8434329896789
97.7850040369794
97.7305393092112
97.7303348559987
97.7616524837092
97.723566621927
97.9246022318635
98.0846220611954
98.0448420026457
98.0553537997941
98.337214179258
98.1940304579291
97.6729965657408
97.3021530115945
97.3735337847609
97.7030554685323
97.7385479951274
97.8710046447329
98.0347879222706
97.8904972850404
97.7245578848706
97.6131641563721
97.9579546172777
98.3237837272102
98.3625450043393
98.0666606532372
97.7264573563652
97.5775479264318
97.5238689247852
97.5108194400653
97.6206606571801
97.6133635534508
97.3126212368944
97.2089144324833
97.4476557403141
97.6735038827775
97.684225103305
97.4891524287816
97.6718464800671
98.0271557737284
98.2865775553338
98.1677179717578
97.7710389937885
97.6300716789862
97.4520159029365
97.2114014617738
97.2789405775822
97.3669666220422
97.3703085024877
97.2625372617377
97.1552572872166
97.2073787403227
97.1884668578445
97.0179903731986
96.9032801464557
96.9585443898383
96.9365033951516
96.9273219252337
97.0526066210569
97.3034289546148
97.4172713059714
97.2542144982036
97.1399966286844
97.1082649032119
97.2030322890308
97.2797296801178
97.2580566687075
97.1936298791648
97.2431165225378
97.0897077898935
97.0186314829914
97.1290135311068
97.214177755856
97.2270427217578
97.2224750933727
97.329790872736
97.3812635011872
97.3028252741069
97.3623030126288
97.4733796103654
97.4650593093952
97.4147824950747
97.4040442150716
97.4108575179093
97.3559135011994
97.2604049859725
97.3092362366865
97.3450802032755
97.3658138317963
97.3611971820224
97.3867746076185
97.3905375755868
97.4219732607585
97.4119305224342
97.3287811654605
97.1599274583521
97.1214849208573
97.3478712252706
97.5019795675241
97.4734243960018
97.4055485403146
97.3735989020742
97.3609707314342
97.33048600648
97.3057013370265
97.2719909952411
97.2928710265997
97.2590929796434
97.1874282520741
97.0449254927749
97.1915649905232
97.2638082168827
97.228854554386
97.1490644062749
97.1292935522626
97.0536101318324
96.9193303098293
96.8653816652223
96.9715833891028
96.8233749863983
96.8412954971466
96.9213404943622
96.9863736669968
97.0210858044657
97.0511417201889
97.0394320864058
96.9512445784533
96.9331275617326
97.0250333180258
97.0293847714554
96.9973349602689
96.9020835184349
96.8559870436742
96.9174972255626
97.0366115662553
97.0341049979985
96.9362593663287
96.8294919858725
97.0780327726572
97.1665078799706
97.1090329264608
97.0740882366667
97.1877228382682
97.1738704017749
97.2143330945661
97.1742125640628
97.0495544435103
96.9581078852991
96.9462212844974
97.1401947396356
97.1341011138523
97.2028810114011
97.1134025343453
96.938153718085
96.9161580190223
96.8666088954193
96.6764395861188
96.5371007689187
96.1436603335508
95.5897506556845
95.0805764605152
94.3224181922508
93.3103755435017
91.8254247327354
90.1642103577956
88.2687794159064
86.2249694568411
84.4846812401634
82.1709284209311
80.1776674695813
78.5712075430482
76.7620340340373
75.036085628422
73.2687331190576
71.4278904791096
69.7321449863565
67.8872776898694
65.6248894518487
64.196861688389
63.488696887953
63.2576123157116
63.3229220423274
63.6460584119617
64.3395498108034
65.8079161335591
66.881526899415
67.6658675514118
70.4737328016481
71.9488863458169
73.6450348460243
75.6731784308378
76.0759570401324
76.6136341397742
77.2728761520849
76.9544658976609
77.3255660603186
80.1393001945065
80.9000597895394
81.0608190066795
80.8691466930625
81.6361358822661
82.898185083622
82.8026534424056
83.4541139180674
85.068186551685
85.3874902821902
85.122515205343
85.8884546602986
86.8722979042961
87.0267589089633
86.4273209616356
84.9220858841442
86.9065030355663
89.6008809376801
88.7872215884599
88.0788717126743
89.4243776742913
90.0258425267106
89.8033642697961
89.4728101809917
88.8547123994775
88.8702816514373
90.6327434124893
91.096548878797
90.6843134434343
90.4450813841136
90.644444772806
90.5846234923968
90.8909309462456
91.4359625614073
91.0204884668093
90.4780168728881
91.0795036360147
91.4272301275642
91.1827240906993
91.1586067431227
91.3980542171506
91.7329654749706
91.8872985188031
92.1106559258361
92.3732564412621
92.5758449442965
92.6501083526348
92.7553153493817
92.8662736185742
92.9504198776906
92.9498885698773
92.9159798900231
92.721242263511
92.3895695065915
91.9161824098432
91.3446732213846
90.5820570503565
90.5938279429307
91.9377849704018
92.2627820579667
91.9691625915467
92.5064368199856
93.1472264814864
93.2196878057313
93.284707835646
92.6003296630048
91.6192876593911
93.5251418674243
94.358807069248
94.2084114709368
94.1332133682503
93.9326519146821
94.1521556359342
93.9657822963359
93.6586357559443
93.5136310909396
93.3847998017643
94.4062576459609
95.0205569334577
94.5059285510374
94.1425848563023
94.5875845349341
94.4808264061208
94.1122804269368
93.9981138515559
94.0622968183918
93.8179119498066
94.2752945021278
94.5306806579882
94.4610343257888
94.7666777329219
94.5432392986121
93.9164135913984
92.7298172298041
90.8362560983426
90.3511760620487
90.9992991178592
91.5801948397127
92.2820531060557
93.0686432566414
94.1235783953387
94.8682473836438
94.7568578587422
94.3785265114085
94.5576587028804
94.7673916645361
94.6926896271148
94.2903006095158
93.8596618945446
93.5407568795657
92.9925936192881
92.392252623916
91.7026880576296
91.374944518662
91.8482794687394
91.9960312104564
91.9863929129714
92.1621825120414
92.4523452084371
92.0190456697253
91.2378241928898
90.9667022238902
91.7731629455006
91.7824177370134
91.62722041172
91.5455902286933
91.6699669567713
92.0253360688287
92.1674838078265
92.226477906973
92.2770237368418
92.1231302555163
92.3799681104092
93.2997576445922
93.6107262382066
93.8185302159262
94.2534370505821
94.6415804737124
94.6492211170927
94.6075500519722
94.4087303215839
93.6934375480876
92.8488509044735
91.3932985064139
89.0576812597414
86.2240597293439
83.7178441005964
82.5130984193466
82.5895061167582
84.0382828423567
86.1035566079334
87.4752094101305
88.5516137636148
89.7007968154311
90.3530537088523
91.1115546942193
91.5771440099201
91.5550185960494
91.4248288998522
91.6104791470506
91.8438409794355
91.8342874820549
91.8306021069012
91.795285053606
91.7048431230043
91.4423644312532
91.4063040521617
91.4278308136635
91.3633996817829
91.6292330030809
92.0673010825029
92.395422557248
92.9518385203271
93.5557672454054
93.7803423115781
93.7234415701781
93.5353783980604
93.16281133034
92.426446447801
91.1730910831185
89.2845195530297
86.7379903267308
83.9799504648364
81.644319551028
80.5735773710691
81.4934143568582
83.6909016548292
86.3523516535994
88.905862208925
90.9137754622237
92.204197164585
92.9018388803721
93.180738747921
93.190108878835
93.0537258853639
92.8583683547436
92.649740213012
92.3668681110343
92.0008868880394
91.6179278620135
91.1855163678645
90.7149774982253
90.2835575460099
89.8282338287648
89.2711357575373
88.5646263060501
87.704770392441
86.6978831290905
85.6449254543173
84.575520003275
83.5359529454356
82.5313916124037
81.5444239110461
80.5886777898793
79.6022174535093
78.5728266022774
77.5470588351028
76.5390549021123
75.5357728402079
74.5531563682183
73.5430047805748
72.4901495783559
71.42570665985
70.3423080459296
69.2733454038248
68.2726322626191
67.385186777203
66.6676570513094
66.0838825966351
65.5346364976451
64.970198614941
64.3688860602569
63.7004562638037
63.0107793938791
62.3106998769984
61.6525989509334
61.1572490503077
60.8095955373322
60.6245646890169
60.6700708343275
60.9395778577346
61.4170024133531
62.0597259600377
62.7844766259749
63.5330251553177
64.2651021948816
64.9824335224079
65.7378557412966
66.5692504616564
67.5203590018513
68.5743937777546
69.6458834617064
70.6966993423441
71.7500212762416
72.7704069345172
73.742017138665
74.6932434625384
75.6352491168956
76.584023558665
77.5410055428484
78.4740330853405
79.376360669211
80.2784550834352
81.1525927089956
81.9246735370796
82.597072823095
83.1823436901382
83.6656377468076
84.0185323545474
84.2302250910042
84.3118125106311
84.3353505633881
84.4032029986506
84.6282988808863
85.0940290589855
85.770575614923
86.5471763813019
87.2855914957035
87.8581642378019
88.2600469775034
88.5317107734692
88.6935367363223
88.765466223102
88.7019036276707
88.5041325017861
88.2013518494597
87.7793848742906
87.2361121080343
86.5793847261128
85.7613405392845
84.7184912946686
83.4668960288304
81.9868805457914
80.2360876717796
78.2844726930422
76.2976641660443
74.4502297438328
72.8659566529574
71.5519485522463
70.455224317056
69.5267476016555
68.7545532911126
68.174236512871
67.8639397872406
67.8252599436695
67.9250400233275
67.9528484905916
67.8023174261603
67.4186440275352
66.7486657042709
65.8672705770993
64.9059538280257
63.9993279966084
63.2314151198423
62.6091700183748
62.1627300237305
61.8756552842409
61.7234697609188
61.7010248619407
61.7847312386001
61.9146723668065
62.1040067177946
62.4024111370823
62.8707016823637
63.4967726561932
64.2710937618029
65.1459938338879
66.1013562847478
67.0961585141576
68.0678408854409
68.9863871172427
69.8748769014513
70.7446496151641
71.5672875373416
72.307371607888
72.9672107514412
73.5331521148648
73.9610559754103
74.2440169540311
74.4304659022734
74.5238157555498
74.5677566108126
74.6411769409276
74.744975915661
74.9106377531886
75.2076650590992
75.6193294853795
76.1362169949151
76.7371502132757
77.4021389783813
78.0348674538056
78.2114011115706
77.1643313956098
74.7111111505116
71.9134282591128
69.565662932227
67.4973801076159
65.9422731756261
65.6757057072134
66.8958591747523
68.8470243896987
70.6971507750623
72.1773685980498
73.3373610035231
74.2542681539501
74.9917786263479
75.6141227199501
76.1915016767902
76.696636356561
77.111619206659
77.4427615344974
77.6762214347738
77.8426653131594
78.0132639129016
78.1842140514154
78.3447046919699
78.3976499353255
78.2329031841736
77.8537898086078
77.2787934160612
76.6041033510618
75.993766045
75.6241713470054
75.6057630874133
75.8902517571768
76.3480954001243
76.846841990056
77.3570989916166
77.8840448335098
78.3880877652122
78.8536513747134
79.260575202361
79.6197197918066
79.9412685432102
80.2119117220835
80.4895405203629
80.7562646743441
80.993496096462
81.2326845787825
81.4537252201928
81.6429141465107
81.8150582699583
81.9983372872864
82.2142050101837
82.4175960464434
82.5983371959622
82.7526275168141
82.9275815169589
83.1467400860964
83.3645701108829
83.5381900202335
83.6655026026167
83.7223873559566
83.7501775393609
83.7703381689623
83.7093650940709
83.5573607907111
83.3292054991943
83.0830568742765
82.8992848941712
82.7611639137627
82.6877824853257
82.7360285537683
82.8840746874652
83.0885503491938
83.2476387384132
83.3124729854197
83.3119519732758
83.1386074849536
82.6970181736988
81.9795129400432
81.0203356553048
79.7968137861353
78.1038812078811
75.5735449145418
73.0941966746254
72.8375105221299
74.5498861461927
76.3150809544624
77.5260586351817
78.2933998380199
78.7269733871941
78.974962536117
79.0675200601248
79.0146900304074
78.9070264392463
78.64901475245
78.1963951897739
77.7352498774246
77.5640088227891
77.7148517841301
78.0600111753781
78.5153049508366
78.9754595315999
79.4463043657489
79.9409474754892
80.3432571592257
80.7567944294794
81.2081474138887
81.591792076789
81.9597157020429
82.2786842015075
82.5316391550291
82.7239248324709
82.9048892992225
83.1129062689894
83.2516787015807
83.3219748937478
83.4306494901621
83.5947293864558
83.7069697299387
83.8350401802911
83.9409243541614
84.0452559381759
84.1210651401122
83.949218662293
83.1960972815819
82.2792634920567
81.9702299999555
82.3088106596719
82.9166683896844
83.60007458216
84.1963129905905
84.7551903012362
85.3082952710866
85.7041997943316
86.0144546417528
86.3783445391781
86.7639600038748
87.1260021625701
87.5880385433766
88.050719467682
88.4763849776405
88.9293541141897
89.3784697591486
89.7833842753937
90.1083080651672
90.4266691452786
90.9821823395039
91.4067513978416
91.7200641543328
91.9751745622619
92.1628198016335
92.2480526716212
91.9307978722551
90.7561528737186
88.5853597875511
85.5105218706314
81.8020432910705
77.8004565964877
73.8750069466612
70.0771553984429
66.1719491136221
62.2442120799509
58.7974681356821
56.719710462434
56.2146521035045
56.8769094806537
58.0492361840239
59.5957227905618
61.1656230947183
62.5072792705385
63.5095171008698
64.4529586859177
65.5131127203075
66.4974560719468
67.2505052981176
68.1448583161156
69.2982186885464
70.5115964134876
71.4387931298759
72.2071867839075
73.0256422243361
73.8918022995141
74.4399782530245
74.6203351475834
74.7040570696411
74.7777320603403
75.1996098065061
75.6868240119331
75.7952527840401
76.1231420170712
76.6160002723765
76.9422260468242
77.0588033871887
78.1059901690636
78.1649898799166
78.0521148807295
78.6038086850586
78.9663694311073
78.8213130045469
78.6582351001188
79.155342897318
79.7952993990301
79.701223010668
