1798
3999.43349933624
650.420452594757
1
128
4
96.6153776206419
96.6204183921531
96.5570623592564
96.48902892369
96.5592369176885
96.6548273115721
96.7049488896531
96.6681601448727
96.6065488257973
96.6197307976792
96.6597867592407
96.6016854219918
96.5405400602783
96.5316858720617
96.6000614601966
96.6875851347859
96.6287137921724
96.527441668381
96.5400682079881
96.5151216613413
96.5541203837035
96.5794792403156
96.5630833476679
96.5877234302719
96.6095698966345
96.5617403037822
96.5709371970142
96.5574666033819
96.4906393236253
96.5290338751613
96.5852914496557
96.6422113992899
96.6935306031513
96.5670894668979
96.4254465294012
96.3438841018341
96.4442924620303
96.5558965431141
96.588873534325
96.5742929502434
96.4861411935132
96.4621400248989
96.2879840647721
96.3571990428212
96.6197625344003
96.7393030480996
96.7239591577554
96.6713384877697
96.4935103243734
96.2194901458079
96.1578663466767
96.1267424637196
96.3179152338689
96.6773621777625
96.8140920833287
96.6708035597049
96.4246230548554
96.529251086873
96.484315276986
96.3402378229111
96.5309864296635
96.4873612720241
96.4423777972968
96.6002351204218
96.669204822382
96.54206131793
96.5634508729295
96.104148206841
96.246801917684
96.4142159523493
96.338904484999
96.5053004265981
96.552484003961
96.7089051990097
96.7104429857432
96.4915772291296
95.8545302796144
95.7027220822088
96.1588177362814
96.8416860620607
97.0086629766224
96.7865881144365
96.5494637742255
96.3064874436279
96.081814499457
96.0949286888388
96.1521165207222
96.392575335843
96.4945096003547
96.71143951912
96.6308785629699
96.6657944665209
96.7298746035566
96.289286557134
96.0282391646566
96.284126096817
96.2041796861748
96.4957311419775
96.697486742868
96.8526958021933
96.8333878939329
96.6129162485892
96.6455942676592
96.470206008892
96.1394934212111
96.2246242013838
96.2939363567563
96.5267942400252
96.717046582257
96.7588077201745
96.7728362078874
96.7436164417889
96.7531703207978
96.6235813779419
96.5566821411458
96.5326682992835
96.4548145297715
96.5231278238981
96.6266040724463
96.8052816773385
96.6852224115421
96.4344878006606
96.5095898689068
96.4259318081566
96.4760889871626
96.6124903027352
96.5051205061409
96.436217893448
96.4383477767339
96.568768679348
96.339397403592
96.1192668893671
95.9084321115557
96.4052737154829
96.2179098212206
96.0509534153367
96.4765954117968
96.6731465454338
96.8121162501445
96.4656010603091
96.1591506745288
95.7814002904569
96.2232634011496
96.6646558627089
96.6459005540393
96.5447674806604
96.3842340024292
96.3045097321426
96.440448161994
96.548339123074
96.6741669956374
96.588327537019
96.4512629072863
96.3600417694334
96.3965356169941
96.5674403687409
96.8560259995068
96.7728312738182
96.6496829222368
96.6344308021962
96.6570633795571
96.7424771082414
96.6823491366678
96.5602784866253
96.311984624321
95.9646846731546
96.2974797323136
96.6074137224567
96.8374736844418
96.6677731123825
96.6269308122221
96.2231504903712
95.9508927267999
96.2527170277043
96.2709507857623
96.2782947992781
96.4502694615464
96.7177193819489
96.7327901000397
96.6681570302936
96.6429996113479
96.5268840210524
96.2402390306693
96.2838529542995
96.2264224984278
96.0598369759924
95.8232686210294
95.6436916944491
96.152313825601
96.4544452266785
96.5835536323562
96.610249928295
96.6581950533431
96.5740713731843
96.2910527532497
96.2344163311016
95.9965944483774
95.7980859627431
95.8642858886922
96.2142807084376
96.5917468956499
96.4666713771628
96.2655652067533
96.1428835232197
96.1966429962223
96.2202843851312
96.278369090645
96.2629622744491
96.2977830862762
96.2705461561014
96.3796492753992
96.5122099772919
96.5939111094083
96.5662082789402
96.4368190792323
96.2676837836048
96.3376881083484
96.5303127411687
96.5316217425036
96.3605807686626
96.3468674551907
96.4403511233549
96.5294913366713
96.5471807445953
96.563523869121
96.5964897197001
96.6754404280068
96.6415937660106
96.5933379520667
96.4575872553134
96.3452780446005
96.0737902362596
96.132188830393
96.4421362596141
96.5822955735228
96.4811676019481
96.4345872302378
96.5579484616907
96.5696555820921
96.4769695644451
96.4352049712168
96.3154779418136
96.2703655883237
96.4221843853831
96.6567290447716
96.7671734450457
96.5820855561743
96.4289945417741
96.5327346883773
96.535255082066
96.4359940006359
96.4247332725975
96.4575512962671
96.3911224500242
96.4372015044467
96.515562921943
96.5819922537863
96.6061248450096
96.5784387773095
96.6103566409519
96.6009962484219
96.555750330273
96.7244222608929
96.7960854199117
96.688259096754
96.5875562569751
96.6640882597837
96.7231109727464
96.6588162749904
96.6699163181167
96.8455886165508
96.8683812387815
96.7213349872372
96.7453006176164
96.8687171099405
96.7129463289321
96.5647739708458
96.5640864228731
96.7060806156569
96.7863394969875
96.7490175240956
96.7538353193489
96.7744081092034
96.697299397074
96.6700860978278
96.762833680319
96.9360312965696
96.8820171831357
96.7216812246882
96.7529846311518
96.9001165968092
96.8608292221436
96.7189447251341
96.5733665905617
96.4422865508298
96.4166665409677
96.459408418314
96.4944607690616
96.4709599176215
96.3132397986369
96.1669275745647
96.1741825339862
96.314541569971
96.1972236641401
96.1300516209098
96.2670306706858
96.3884685011414
96.3304247404781
96.1614611812012
96.1631358378552
96.342089232753
96.3123200243022
96.292495831564
96.381448962978
96.4395481377922
96.3992127463551
96.4963127116985
96.5878027209421
96.4816338251141
96.2295353921253
96.3652217940815
96.653776180423
96.7065998125613
96.6686803076517
96.6108174663279
96.6055285539596
96.754347221286
96.7400847190876
96.6901910991847
96.698602746052
96.6340449276671
96.5386011858772
96.5579283214222
96.6406505591198
96.7172539210576
96.7386987624037
96.6952749249231
96.5814824349705
96.6821716185805
96.8245102240667
96.7855221516705
96.722419888488
96.6859558049897
96.6380806390944
96.6921944276323
96.7109124554985
96.6551492492604
96.6057475395481
96.6764514257239
96.7065570545694
96.6689303428151
96.6898315849207
96.6594323757935
96.5123903512477
96.4520643037057
96.5136718284577
96.6871303745253
96.6607397763635
96.5548066174236
96.566237935866
96.5808625105774
96.6107499810255
96.6887985839339
96.6336847562386
96.5485262569211
96.5178704004323
96.5289940444697
96.5717449009117
96.5838018488954
96.5354422569491
96.6041522149353
96.6753644287096
96.6853417689959
96.6704146068901
96.7280775818023
96.6936254462213
96.6615241426798
96.6628158440365
96.6144824830052
96.5739203068222
96.6449970315816
96.6929056897109
96.6802261377768
96.6312353942608
96.713832785628
96.752530415375
96.6634546091503
96.6351159206466
96.6489604283344
96.6407286402865
96.6345708725995
96.6327668911581
96.6375718627689
96.6060353513962
96.6407257636067
96.6826393155409
96.6240738129692
96.5785002128096
96.6164717016074
96.6333164307107
96.6414966057382
96.6338593452542
96.590806244777
96.6106661360323
96.6578913069809
96.6339932536408
96.6580974211156
96.6983368678603
96.6517329887795
96.5975671077119
96.5819064743959
96.5367303949263
96.5412640517811
96.6139298115059
96.6383450173356
96.5962074495348
96.5608047826997
96.5326581858494
96.527736370546
96.5729497345395
96.6851967388491
96.754425133163
96.8107097183395
96.7421261115319
96.5914969969902
96.58111839467
96.6905959101612
96.6982128159036
96.6323221791197
96.5910757949894
96.6215114426674
96.6408821519557
96.6307225795855
96.6307079530373
96.6356937053868
96.6223135963444
96.5791186712033
96.5648575359206
96.6610476715653
96.634309627022
96.5503200374504
96.5769189693572
96.642429527384
96.6656860356356
96.6754123793697
96.6303344868368
96.6301921180073
96.7017766102288
96.7132285786727
96.6270558271115
96.5789040577341
96.537647152882
96.5438782154819
96.5369671007092
96.5593871635404
96.6294860005245
96.6268368151023
96.5827298179311
96.5610084396531
96.5447236965832
96.5993340820703
96.6115587869676
96.5573331781974
96.4847713392926
96.4536000606329
96.4630138525936
96.5018895456773
96.4501235340215
96.3463052793177
96.2969070203392
96.3131107901874
96.3446748831486
96.3542081221847
96.3240208168812
96.3095861140941
96.322856389513
96.3757737404101
96.3649810149112
96.2782377914429
96.2484423235973
96.2162530208928
96.145412724831
96.1812380281233
96.213746693628
96.2134647928475
96.211023237308
96.224285898531
96.216487284348
96.1870284584499
96.2208789412127
96.264104711602
96.1898446952865
96.1180407132867
96.0404297106007
96.0104487671609
96.0475839602721
96.0450911551163
96.036054395931
96.0797047625145
96.0235711379876
95.9886990363725
96.0307163807509
96.0723063336678
96.0656309038715
96.0259046860424
95.9680985639022
95.9079910540991
95.8714142635615
95.9229109061186
95.9726235026302
96.0129215393534
96.1124703842045
96.173539666596
96.1653746259138
96.2390938913871
96.361165818721
96.3973553402135
96.3988848145635
96.4203528552261
96.3584520474063
96.2775226338726
96.3121241418015
96.358401575343
96.2466920166752
96.1281553663829
96.0901472179573
96.0507058346442
95.9317945766454
95.8375563765217
95.8160358846843
95.7920440503958
95.7362201393581
95.6910634724551
95.6580570178636
95.6408023840264
95.564048929497
95.4904970188302
95.4890451254881
95.4957338103354
95.4465285623031
95.4076862911313
95.3412825434551
95.2939610356065
95.2853053318391
95.1754122877039
95.0149415013213
94.9026828071837
94.747122103388
94.5640870551335
94.3939572861139
94.2765087242096
94.1693217533957
94.0345209429008
93.9174795388201
93.8872902293034
93.9029332841973
93.9316045596514
93.9320459559004
94.0061670606405
94.1460395678896
94.2360440613765
94.3020378897256
94.4408805542655
94.5834786413162
94.7195933245392
94.886324410323
95.0360823472984
95.1531472627895
95.2746619785791
95.3872341797903
95.463250487814
95.520740590771
95.5992060267783
95.6534496007105
95.6718732902737
95.6985174050404
95.7443008235402
95.6917474527528
95.6377731808346
95.6424186260817
95.6126665853558
95.5242680385365
95.4549143747234
95.3956013154776
95.2862051205986
95.1404117541455
95.0662114514843
95.0734789125748
95.1283449875562
95.1981865814191
95.2880926223124
95.3822521106892
95.4159398367516
95.4034900470735
95.4316448422811
95.439512948031
95.4224526428017
95.4328970726905
95.5051494181909
95.5222362553828
95.49700336169
95.5211416160074
95.5845928884114
95.6058098117494
95.6121941596057
95.6495595429178
95.6699164777699
95.665861343095
95.6676239699956
95.6457002347846
95.6706910816221
95.714390910789
95.7379922911282
95.771707534673
95.7910692228494
95.7977999968429
95.8298281914611
95.8678482114442
95.9373205791557
95.9695768682135
95.9326010069567
95.9023048229564
95.9658092445854
96.0330421406575
96.0757342263261
96.0778176813597
96.0624552677387
96.103968105316
96.1236349938728
96.1050555250313
96.1358910849589
96.1523713615999
96.1152349914009
96.0952464060482
96.1001677326446
96.0834515917002
96.0997204665422
96.1178753102243
96.082553704085
96.056866747934
96.077299087843
96.1022797459003
96.1162532378708
96.0908382209238
96.0680726990637
96.099174825267
96.1635637422543
96.1490823717472
96.1322697386884
96.179351837502
96.2169189959613
96.2216604768353
96.2127500547593
96.1901845804187
96.1962549159451
96.2056109761651
96.1872559390013
96.1974685712788
96.2531153943268
96.2859645761367
96.269484341037
96.2057306953204
96.1900106616638
96.2323448814326
96.2654087745237
96.2761004946666
96.270738429565
96.2433589049146
96.2515078578167
96.2740921594019
96.2645015781176
96.2321506819482
96.2458397789169
96.2738842829568
96.2773195183195
96.2776815750345
96.2676361932662
96.240261259363
96.2461145785264
96.3063559121163
96.3459572561641
96.3031927525312
96.2723259475895
96.269787558739
96.255623682728
96.2911330836858
96.3584794819797
96.3566943886337
96.3425061872491
96.3465578779179
96.3568195551181
96.3512720836596
96.3909355238039
96.4515740962818
96.4444832923297
96.3977225273456
96.3409446913669
96.3322081703862
96.3818049024646
96.4040389227337
96.4306639683591
96.4334763074869
96.4143311047357
96.4028474140948
96.4081076631208
96.4290818995423
96.4193228900863
96.378796120461
96.3805939261255
96.4092304398715
96.4270769849492
96.3970251583733
96.3561417623519
96.3835684871493
96.4309449288378
96.4277761697551
96.4159349522959
96.3799328560668
96.3445835236312
96.3627332609265
96.3510265053099
96.3032098246802
96.3075949692306
96.3197114864578
96.3473527183964
96.3794318528618
96.3465592547161
96.3346276588958
96.3643759800342
96.3555488494096
96.343382205555
96.3253457682544
96.333309425754
96.375818736671
96.4019308419663
96.3766293964276
96.340298475117
96.3394165586304
96.3218909672605
96.3230432200408
96.3980238672424
96.4560503835912
96.4706590952996
96.4488468595368
96.4373396047564
96.4576287776178
96.5073755812383
96.4796596367133
96.4037704518745
96.4623296303546
96.5618137494898
96.5502394487042
96.5098758771213
96.5057533406905
96.5930928324857
96.617982638679
96.5402695685894
96.5368259071861
96.5465562254433
96.559467326692
96.5909937955404
96.5502126443539
96.5388544245279
96.554182534594
96.5646426601707
96.5931751035731
96.6182180863728
96.6197400108894
96.636282619479
96.662431445616
96.6339788042785
96.5227790088661
96.506190232861
96.6112141906655
96.6467278163463
96.6455030011618
96.6411378138835
96.6024957503889
96.610648943055
96.6209666221622
96.6535453053291
96.6157533199414
96.5279585729964
96.5885623014637
96.6785728816895
96.6524670081274
96.6014336625121
96.569972573461
96.5666081490447
96.61320763672
96.6690268503361
96.6502836482277
96.6720759907162
96.7305674841271
96.7528759476998
96.7168341833036
96.6565950618032
96.6481429569369
96.699848338067
96.7283531835715
96.7474966761568
96.7255304232489
96.632295691483
96.5816145616638
96.6211774476342
96.638972014435
96.6762339997386
96.7722777985057
96.7955973088131
96.7538988006217
96.7379936269139
96.7011219300984
96.6917803618294
96.7265401597471
96.7706157894364
96.7995324351961
96.7806539703657
96.7003760091981
96.6780540320596
96.7125959696087
96.7289904320405
96.7343417947482
96.7213349938446
96.685952224952
96.6928429040773
96.7810424719332
96.8332213003541
96.828474990191
96.8312281210075
96.7982049098511
96.7537449045272
96.7388724636584
96.7277506332827
96.7467256499609
96.8195532683637
96.8291427880153
96.7663564649438
96.7302210246046
96.7597677320511
96.7686530151327
96.7627791550358
96.7770242613884
96.7609063500176
96.739966964319
96.7800083030501
96.8342607860871
96.8431845711148
96.7752289404605
96.7579203600974
96.726210647202
96.6480145053137
96.6157509493191
96.6700540594952
96.7466580321648
96.7225969053838
96.7189071309266
96.7891626592905
96.7651525529684
96.6619884948395
96.6624190980782
96.6760746708488
96.6040398365989
96.6072632675201
96.6546089089062
96.6120204894036
96.539430609799
96.5313984653906
96.5637967757515
96.5582051546325
96.5473877411195
96.618278345467
96.7360911767547
96.8592997765591
96.9976583334664
96.9232809365996
96.8869453088488
97.071980232847
97.0506154919128
96.8909647827293
96.8340200448517
96.9951445972375
97.1114218740816
97.0140116650474
96.9458784634894
96.905296816627
96.8269017797569
96.6922433633544
96.6083712971658
96.6585568105331
96.7011802038984
96.7296812527351
96.8327661129708
97.0114501467881
97.0286473793661
96.7820421388317
96.7879457987454
96.9617579615308
96.8501153514113
96.6974915956136
96.5870995885249
96.5980089144335
96.6929293145209
96.7634259034797
96.7741144841475
96.8014909448351
96.8327199508259
96.8517577770789
96.7882026130557
96.7244039264277
96.7988443018588
96.854567262949
96.8121611126226
96.7985260176456
96.7704953098486
96.7227339247763
96.7469045622038
96.7773993130586
96.716830652973
96.6621027473082
96.6382736750232
96.7139481842746
96.8915253623035
96.9508884773977
96.910884398924
96.9768939900428
97.0316072182368
97.0877883110119
97.1890225535068
97.1626494371675
97.1188318921685
97.1287356087606
97.1083502096503
97.1972766425891
97.2621281002279
97.2537461162717
97.3097102353942
97.204162223974
97.157218668968
97.2899079790631
97.2852388529488
97.2916815119342
97.4368651260797
97.6025994766701
97.5287989460491
97.3841665370578
97.3845357643802
97.4244783786246
97.5206049394217
97.5871883610513
97.7190845876418
97.7645714508668
97.6904067628418
97.662133244775
97.5995964134853
97.644471538021
97.765731684083
97.8719251875282
97.8356241228739
97.881723686859
97.9701250588735
97.9466425938401
98.0426112981352
98.0409890288424
97.7504139556143
97.5908493343678
97.8368558813637
98.2167036397109
98.2249871041751
98.0173201606749
98.0158126381932
98.0443074269265
97.9756522042577
98.1416279038372
98.2900267645035
98.2544145889638
98.3376098437368
98.5721044347102
98.3045540981615
97.8844039579296
98.1150800679669
98.5479218358491
98.5255060555039
98.2630549664859
98.3061465474479
98.5412056240485
98.6880879672217
98.65347882712
98.615033038768
98.823821957658
98.8989782912077
98.7318434706002
98.4601059509623
98.3050365023522
98.3149185801036
98.2661722901489
98.0949279691111
97.9809981678134
98.017786728392
98.0589146416507
98.0578942620368
98.0333190733345
97.9238553182954
97.8534560958566
97.7741923510686
97.6298479126059
97.5889779563073
97.5481652282588
97.4923440957051
97.502139671862
97.4454576560418
97.3921253785837
97.3470686799113
97.2631450032173
97.2911230889213
97.4220785460153
97.4635411824557
97.4238056907417
97.4230196009824
97.4200967128526
97.4749960757636
97.6600063055564
97.6176990470592
97.3564614029734
97.438028218363
97.5728931302308
97.4237566246851
97.3657215814558
97.3910568826065
97.4354091441
97.5785797131313
97.5923567670767
97.5217400004167
97.5685136039858
97.6650149819768
97.7507444608795
97.7460752723972
97.7715377720276
97.9072055117637
98.015948777198
97.9915094091598
98.0198448307575
98.189768474248
98.1730548776319
98.1602443538162
98.1931581727997
98.1753582159056
98.4027346109368
98.7636046093196
98.8374844102852
98.7192943509688
98.6429109818163
98.6719975511221
98.6934954851472
98.7936048817727
98.8143768290143
98.7745026617443
98.9571934026407
99.2977417670031
99.2935461558286
98.9831946270228
98.9030584184697
98.8795534511654
98.6280515319259
98.4580673250169
98.7397583311115
98.8513050661808
98.6244600053223
98.5903953873314
98.5131019522128
98.4399868627827
98.7181902716728
98.9352332177087
98.7749010204943
98.6397155347602
98.5131532422747
98.3068485662915
98.4212758911604
98.5630804096701
98.388677882032
98.2533336318791
98.2785062621551
98.2964137421443
98.3886032182875
98.4711904414276
98.3863179727157
98.5906085757922
98.8391380685162
99.0039894149252
98.9765653017237
98.5213643672283
98.2335555730504
98.1208095832913
98.0063816936177
97.9818306762927
97.9066087913997
98.0009506241873
98.0360023307985
97.9088520993003
97.7992727761831
97.8561046956165
97.7467482828699
97.4890720528186
97.6376875043232
97.7452828991038
97.6548485154434
97.7131731052813
97.8320521240546
97.9040424958038
97.8463906666492
97.8633794467252
97.8779311266893
97.9737950267044
98.0000851421282
97.9636945164292
97.8252992332034
97.8397544179789
97.743906642641
97.6971244320616
97.8261142552201
97.8646200224303
97.890979953391
97.8428007059614
97.9077840592833
98.0374954573557
97.977006935744
97.938296181408
98.0564648106252
98.1577180712331
98.09235815982
97.9688085595558
98.0113558968383
98.0511784651859
97.9978838629193
98.0713172047895
98.0545209857314
98.0496681330579
98.0484743247473
98.0716670994958
98.0922312996648
98.1331296167016
98.115486591216
98.0918875349153
97.9372557309679
97.7809222282415
97.9186609746419
98.0511999012744
98.0561611624071
98.0774356001456
98.0682260198217
98.0130976934647
98.0048981357371
98.0249033535118
97.9500483767156
97.9059506783306
97.8553856080272
97.8617523149642
97.6260809396996
97.6558183880443
97.7395155126862
97.7472261553199
97.753985049067
97.7511626452105
97.6413777898646
97.5626725598961
97.4533371812142
97.5497166524353
97.4032296166893
97.4082753408054
97.4458224045315
97.48038217612
97.5623327780441
97.5956506930921
97.5911097173688
97.5323385120596
97.4674774063822
97.5244653406779
97.5126036504363
97.5042158057915
97.4269597707835
97.3252357458301
97.3750267778351
97.5023539593371
97.5091869764228
97.4703901088195
97.2879652680491
97.4677566522687
97.581464967201
97.5702060177331
97.524286044522
97.6416397822578
97.5641838999335
97.5736205894632
97.5643652616843
97.4598616234821
97.4085296906743
97.2483874076787
97.4083657249317
97.3607207418068
97.4536954378775
97.4621750622005
97.2870562679456
97.1747742592536
97.1653228763388
96.946188688923
96.8108973724736
96.4801706212174
95.9782889365865
95.4243125490694
94.5862304279792
93.6121657874298
92.2527981299593
90.7438985116376
88.896388730396
86.774958630536
85.2402007636703
83.3232225431691
81.2352289458289
79.3924320697684
77.7031799722929
76.0831020502968
74.4871476274127
72.8085216735305
71.1939964131875
69.6607742407073
67.9993823691582
66.5856129470417
65.6353360264944
65.2842203605016
65.306193176527
65.5872886149892
66.2135275316113
67.4470201916933
68.3134260419888
69.1453427730967
71.7598239685207
72.9844687465509
74.6210993292216
76.6491879774334
77.2079135046692
77.9345516028022
78.65444530383
78.6191408499429
78.8662976903665
81.196495045175
81.8945966617568
82.2797415404309
82.2967172250595
82.9588600763024
84.1138214342436
84.1490140128659
84.6999528520784
86.1231539780347
86.5668001090443
86.4636360906298
87.1892787917731
88.1693562418664
88.3784665928052
88.0688290400449
86.9514467017357
88.2303045059512
90.4864583607143
89.9933282086775
89.3520685702374
90.4413734710394
91.1042188132298
91.0382936091303
90.8525041171334
90.4733023475007
90.3278654385879
91.7002029324615
92.1818725906343
91.9561756958964
91.758113526265
91.9587488367816
91.9755699079965
92.1511494543778
92.6295327724209
92.3797629825262
91.8789072107308
92.2562695946875
92.5321257384992
92.3285001022753
92.3403890574054
92.5465580361792
92.8760027220249
93.0517368489578
93.3094867899693
93.5519051357104
93.7433428616729
93.8156532638277
93.9328795964973
94.062396323133
94.1492746378115
94.1525789975311
94.1572376905181
93.968062559582
93.6381901473016
93.1189954855897
92.5545169857281
91.8753510886939
91.7145706536357
92.8057505603849
93.2565719310666
93.1085870345016
93.5636208784644
94.2224538492421
94.2571688661661
94.374938704708
93.984022817511
93.0553131588463
94.3332149423959
95.1040033702534
95.0462614215677
95.1492033380284
94.9402101025645
95.1815839174244
95.058933285952
94.7469539853033
94.6312218716826
94.4783477792485
95.0566782181599
95.6909741634436
95.4386432651253
95.0419747483839
95.4372646595772
95.4389126644517
95.1202495092943
94.901716630722
95.061903478467
94.8412598081455
95.1030321718266
95.343852396306
95.2092547541825
95.5377505144858
95.4029987864305
94.8883760750699
93.9119000027473
92.1848990510462
91.2516571684398
91.6756078967231
92.3160187063985
93.1205835220919
93.9668773261655
94.9014061398854
95.6450267969016
95.7239221479476
95.368679995166
95.3798272525251
95.4930237524524
95.4998301328556
95.2225051640377
94.8162440117259
94.5361814100669
94.0259422095532
93.451123071131
92.8254229167435
92.3430525617049
92.699519868108
92.922490742545
92.9927507617344
93.0425240223106
93.253486791129
92.874903508205
92.2773301301424
91.8593505008852
92.3713258185688
92.3832347648222
92.3611353179152
92.3391266110455
92.4215278682477
92.7764561606741
92.9710875076198
93.0292501196053
93.1114903276571
93.0385551323487
93.149357977222
93.9014729594496
94.2568218706657
94.5284299886644
94.9316139696835
95.3733506914226
95.4365223835715
95.3622210881505
95.2958826056574
94.7125273932404
93.8430175838594
92.4643345628235
90.3177000673674
87.6328520522736
85.1053281412476
83.7324605852259
83.6564072014392
84.9543602482923
86.8925828756234
88.2658129253029
89.3030782647639
90.4400932508797
91.109111786702
91.8521571530082
92.3456900018656
92.4533917252601
92.4041975245508
92.5312048800232
92.739251369424
92.7393275935233
92.7283864986459
92.6545417380103
92.5760992609353
92.2830889324963
92.1454126800399
92.142205716587
92.1010711746139
92.3271490730986
92.7693897961971
93.0937724082899
93.5698906387301
94.1245695513068
94.4012201591528
94.4211691472499
94.2898302801062
93.9969716401487
93.3930510398171
92.3269682305175
90.7012457993699
88.4019352300492
85.8031426793817
83.5146774447183
82.2609456362314
82.7814338582668
84.6043108580562
87.0216166528432
89.427308622032
91.388957642507
92.7171700233717
93.4600368681333
93.7769075024047
93.8109073348883
93.678968103405
93.479641218539
93.2463172057361
92.9454684861087
92.5930360473451
92.2298260604214
91.7974148466386
91.3206185901231
90.9132939274416
90.4957238178512
89.9865263927052
89.3398045098181
88.534526122931
87.5855640446236
86.5918987585408
85.5932768725715
84.643238580775
83.7111099354229
82.8009464477387
81.9378319530921
81.0577886432488
80.1564678297551
79.2982403795629
78.4455416144683
77.5858368563744
76.7456426926574
75.8539069267743
74.8892088213893
73.8956813465435
72.8813080148417
71.8770232133065
70.9398471999558
70.1064706074824
69.4296080160409
68.8918487779718
68.423126917003
67.9752345980642
67.4662990838789
66.8790491278769
66.2529969110094
65.6125456408766
65.0291773923485
64.5703491440303
64.220693011851
64.0129309759335
64.0035598663874
64.201512687457
64.5805199862642
65.1318328694272
65.7767787664777
66.4223694348845
67.0755368214995
67.7360193409874
68.4150896490198
69.1649696852869
70.0173252247263
70.9685066134055
71.946175925197
72.9184067408284
73.8966102850092
74.8319226924117
75.7373736796574
76.633978501869
77.5112392169004
78.3907053133799
79.2830204000505
80.1636086548685
81.0245140878217
81.8750773153748
82.7109762924806
83.4826948039779
84.1519601114007
84.7318586071381
85.2052774368314
85.5382592174997
85.7134508915952
85.7494389818404
85.7383930973921
85.7624941223854
85.9208383207231
86.330797796861
86.984169377815
87.7562725443397
88.4762381896667
89.0405569176663
89.4254331938667
89.6663576202737
89.8154806722217
89.8652337901146
89.7924592916344
89.5984066938095
89.2759693232233
88.83312785562
88.3028518852275
87.6912087714448
86.9298478220358
85.9814133981916
84.8870115004234
83.6208538284049
82.1096690740775
80.4182175766601
78.6887884055268
77.0639262480692
75.61491368153
74.3731411734522
73.3353698373078
72.4389609968253
71.6466723667521
71.037926629252
70.683646637638
70.5731586587951
70.6317521633089
70.7125511319656
70.6615970418903
70.3618179152824
69.7531776558245
68.9301870454064
68.0626138820635
67.2477591189644
66.5456822402913
65.9802152125347
65.550949579671
65.2749694043521
65.1317328606943
65.0935892806513
65.157844721532
65.2829813196067
65.4538955161557
65.7061819940412
66.0874269805321
66.6269141395799
67.3073917877171
68.0869615108667
68.9507223042055
69.8509066434377
70.7341746379187
71.5617731696546
72.3715902140039
73.1688247432073
73.9112876491932
74.6030592908896
75.2417191961526
75.7519625570799
76.1268325622198
76.3924028733027
76.5589837578073
76.6501541738879
76.6916677381441
76.7160893302704
76.7645855964701
76.8796058368201
77.1473436797119
77.5428874451509
78.0311164158454
78.6062561283042
79.2486832319197
79.9121954207987
80.2407208193514
79.5147310682128
77.4723730931124
74.980163232516
72.7464829078119
70.681278713875
69.0889004326
68.7004678352604
69.6927095904862
71.4130879278702
73.1139375460057
74.4942823552329
75.5843494906122
76.4709015676094
77.201369638057
77.8110195974889
78.3554633913121
78.8376517903184
79.2373077504425
79.5518500627247
79.7822367975253
79.9495081072605
80.1155275210915
80.292691135574
80.4419584494094
80.5013617489847
80.3874257479337
80.0498411127301
79.546714766616
78.9579519012034
78.4218267005924
78.0854701882492
78.0199516443499
78.2368081346301
78.6389265642948
79.1007960859959
79.5786346783161
80.0599772096188
80.5039802880545
80.9175349501522
81.3118722655156
81.6492653718976
81.9455516894816
82.2347918954196
82.5044937849022
82.7538828518571
82.9762398464464
83.1822087099232
83.3648391830409
83.5639414256544
83.7687293245553
83.9408592811217
84.1019408616781
84.2647569060707
84.450949590197
84.6171033797743
84.7681846240873
84.9855794415227
85.1610524001374
85.3040782195793
85.4635982032558
85.5322084542967
85.5326656501804
85.5344252637403
85.4681541235354
85.3051211675884
85.0715487990734
84.8288954911405
84.624750539456
84.4560643239879
84.3648744987496
84.3888281286504
84.4978833437512
84.6520732023451
84.7928668918999
84.9010964615014
84.9204438340519
84.7226303097919
84.2871531993409
83.6081776882892
82.6603282868228
81.4810431997792
79.9103200354121
77.5990079726
75.3699242426796
75.1396203368875
76.6607396841447
78.2934459913878
79.4548796846942
80.2149712715829
80.6228353489898
80.8698846623776
81.0122161060031
80.986984801156
80.8974356190042
80.7173150548495
80.3757027643856
79.9801145066369
79.7071382146893
79.7390593751234
80.0822242910653
80.5514782968305
80.9690270892388
81.3566890721957
81.7667561551209
82.2103915370806
82.6839766265706
83.1093559958446
83.446465517487
83.7387508800533
84.0182561764571
84.2677553269753
84.4309371532116
84.5687229594164
84.7479814557418
84.8994611464469
84.9884111764027
85.0926043725657
85.2453345845278
85.3420175690082
85.4467634055106
85.6034673401835
85.7676341957381
85.8816128631789
85.6542496133266
84.9147368150316
84.0663788290022
83.6857219956694
83.9974542658064
84.579953054242
85.1210820664136
85.7241891718848
86.2896954732868
86.765622006428
87.1233669144418
87.4294854902144
87.793052821206
88.2328426761402
88.5839470912089
88.89494435611
89.3330817139722
89.8022368386376
90.2452579029935
90.6090836246475
90.9750871626873
91.2814922384009
91.5959703980136
92.0850113924798
92.3622319596787
92.5737537008216
92.8182001240092
93.0226031571172
93.0397671413579
92.6647066987935
91.5800497249552
89.5682321853504
86.6113681954634
83.1072757725259
79.4842366491593
76.0391158698338
72.6589408887008
69.1733988518571
65.9209768895494
63.1707929056114
61.5381241211813
61.2184091618527
61.7438742286685
62.6525653685408
63.720102590432
64.759672807161
65.8741179503348
66.9268369372805
67.8958318421536
68.7573858099251
69.5241620549885
70.2638608678923
71.2036643290978
72.2033940712889
73.243760406197
74.1582917402403
74.8465634112254
75.4137165818652
76.080771620594
76.6771806935645
77.008005843213
77.191646548237
77.4108675233033
77.7117209684213
77.9263633226246
78.3376166997158
78.9288845611391
79.2539542749058
79.4406771040344
79.6202532120502
80.4787584070404
80.3600614725111
80.4518531594719
80.9577246565284
81.4305522296572
81.6044070747843
81.3391947190514
81.1505050825468
81.4012918538549
81.7798150487172
