1798
3999.43349933624
650.420452594757
1
128
4
96.7036086057453
96.7191250039903
96.6754992673243
96.5768096785009
96.6274857647377
96.7034608063593
96.7527982655701
96.7716931400972
96.7164154752198
96.6969808054687
96.7395792672725
96.6690576566469
96.6081421645624
96.6132853401627
96.6433921977597
96.7376282375346
96.7613011445146
96.6789575669758
96.6442585878918
96.6059461743109
96.6242305590096
96.6545882143212
96.5793621420927
96.5547912626074
96.6372193284276
96.6191048409402
96.621587966744
96.6698559525932
96.6103728742465
96.5909124330746
96.6814181179147
96.7381951153323
96.8246443837846
96.7005610583504
96.4659904735048
96.4521597039928
96.6523377368177
96.7207433383358
96.6525368351713
96.6596761372963
96.5599375509067
96.4454935750713
96.2635861031606
96.3825687402223
96.7514731797406
96.8989372960575
96.8311315812191
96.7627205215426
96.5587883170889
96.1400306421423
96.0620632678875
96.2418694988661
96.5875705970008
96.9906061808322
96.9712224723166
96.6993225788713
96.3819379421285
96.5035000744719
96.6187668711424
96.4375223756129
96.5582624614979
96.5294588436251
96.4172167392507
96.6595971290495
96.8181856204437
96.5462738208953
96.478393702102
96.0934604983137
96.2811530884665
96.650415348472
96.4665238729532
96.4058289564298
96.4811286969893
96.7237117075943
96.7715626854392
96.5241908822489
95.7455653139754
95.588234425269
96.2903861157133
96.9442187231645
97.1431527971396
96.8725213977152
96.491303679168
96.2492480061512
96.0649250777206
96.0748961182153
96.2341586260292
96.5650034609736
96.6696580795371
96.8742632189101
96.7650241029261
96.7035552988944
96.7086973439792
96.227412677178
95.9643829994823
96.3713909280262
96.3028527560903
96.5036719757226
96.7751363727136
96.964497434881
96.8581919802165
96.4047302902151
96.4276328941298
96.4332380867335
96.0576922793107
96.273750735503
96.5123006225463
96.5712846458996
96.7213389993156
96.8472456242026
96.8782702700575
96.7334892829653
96.5681589829037
96.4775048634488
96.5560915830842
96.5245015399239
96.3277203910083
96.4939219997959
96.6715303020973
96.718288055842
96.6376042632484
96.4207819669402
96.4226174870392
96.3427995041247
96.468946030234
96.735361931364
96.5983837509211
96.417789809288
96.3679649131585
96.5017693049159
96.2966566680916
95.9842098299864
95.7897252774098
96.3541137478897
96.2396504112242
96.0621997026657
96.6909013867421
96.8176013354124
96.7703714987964
96.3872259086935
96.1172562923422
95.9375710635295
96.3969731344652
96.8503850064635
96.7497494978098
96.5316635100693
96.3705884731286
96.3027449377019
96.4578358692361
96.6019456633601
96.7340541976546
96.5733626961784
96.3018098356862
96.2160577083785
96.4633044016519
96.6869792151142
96.8877336503654
96.775250492186
96.5863926832812
96.5957733946112
96.6791650167196
96.7558224330694
96.6900159905615
96.511095774648
96.2430723962368
95.9267349794318
96.371370474471
96.8097428207231
96.9608922274591
96.6592916830129
96.4633233838671
96.0257876700605
95.5538286950432
95.9467906933021
96.2696326757532
96.252148174241
96.5329060591932
96.9283894406104
96.8853933416817
96.6697995739565
96.5759949278296
96.4517397949611
96.1261594415678
96.2163342012235
96.2344459524414
95.9344774937178
95.5804322590849
95.5746438921108
96.2633023532065
96.5848872503037
96.6572645122106
96.5819751949759
96.5281808762938
96.4616132419255
96.2364094951739
96.1492713910458
95.8418578300321
95.6096219923099
95.9587161032164
96.4109226844403
96.6761858419334
96.5357240207096
96.1804248536235
96.0328761663606
96.2394781582574
96.2726455293497
96.3594190495395
96.2977949791059
96.1847702147059
96.2403775548445
96.4467368014635
96.48064959084
96.4545126055434
96.4435363650171
96.4096237002805
96.2554972444392
96.2761202000297
96.4333921934035
96.3995571105698
96.2146544773189
96.2353139976058
96.4725442401613
96.5224839959248
96.411078741416
96.4836587117805
96.5834582506078
96.580003347595
96.6006188662702
96.70281139612
96.4587040699163
96.0430927290496
95.8651741089977
96.1997418613755
96.5541270285793
96.6325095089478
96.5128135034568
96.4601007180519
96.4518934615549
96.4409441545883
96.4193076181577
96.3274565634302
96.2469377958475
96.2717282804701
96.4154521957948
96.5641962511284
96.617206251509
96.5564649794425
96.4518421257405
96.4673510069177
96.4542361952165
96.4991683619917
96.5103572197168
96.4093411167731
96.3814063693951
96.448239492441
96.4983497622801
96.5490615328874
96.5181978678064
96.5170945975648
96.5410099062716
96.4862239257725
96.4854791146069
96.6465694246793
96.7354718392056
96.6969571389425
96.6156176516516
96.674515270063
96.660293506923
96.5293503042673
96.509730080465
96.6592614032952
96.7413122928017
96.6269266821875
96.6429078227141
96.7653490721683
96.6776546980683
96.5955488337973
96.6091105657675
96.7243184251831
96.7565647333935
96.7068825100566
96.7200054798709
96.7719939911256
96.7364335818563
96.6505509564742
96.6157791940291
96.7403928517288
96.8303166886037
96.7747057672012
96.7546697224287
96.7915989279349
96.7292674938693
96.6285594330662
96.5269950103224
96.358324055123
96.3131396725676
96.4753606762105
96.5868666254359
96.5636874181356
96.3442575169009
96.0780530349403
96.0835444225819
96.3045013083237
96.2215423904469
96.1520946960629
96.3195999924448
96.4219082515996
96.2570146033554
96.1096220108852
96.1953468012663
96.351523447372
96.3283727189333
96.3537657766342
96.4520387329822
96.4597120109224
96.3845562603321
96.4421675484324
96.474454165996
96.4054667613269
96.2402180130905
96.344263473847
96.5438185645198
96.5742775754661
96.5890236414546
96.5803981288435
96.5679086950208
96.7333520448987
96.7710910978982
96.600688384444
96.4936015371917
96.5187850602795
96.5268588339415
96.5578321158079
96.6445653438689
96.7071141687153
96.6238732971184
96.5512817347306
96.4598867108046
96.4838638480455
96.6706756195929
96.7145170961454
96.6222683168498
96.6212580485542
96.683804332552
96.7133907853331
96.6616615199067
96.5595981477316
96.4978651679277
96.5908562211915
96.5970796625683
96.5101812740396
96.5485729239692
96.4892922620369
96.3682486256076
96.4998654249165
96.6168768942615
96.6161594540854
96.6251149499151
96.6303575418164
96.505240350034
96.4552142556141
96.5346678831396
96.5931203196092
96.5414279440044
96.4991384014412
96.5265009924924
96.5384152212819
96.4773633166042
96.4702158738571
96.4830448523292
96.5431235908762
96.5474656199452
96.5082767808725
96.5505788453451
96.6387248762353
96.6279314236917
96.5891555101623
96.5751553033049
96.5248230842844
96.4513653812574
96.4724812753744
96.552225048341
96.5770687026315
96.5451603959737
96.6081928577428
96.5875755751105
96.4420787191755
96.4461541812814
96.5217399676235
96.4734284331501
96.4772697326538
96.5847428423102
96.6660126703664
96.6744953624283
96.6622558054877
96.5797331399028
96.4729492895438
96.4945239619797
96.5255910238428
96.510776334894
96.5451251919778
96.5445074544387
96.4592374847405
96.4854314309952
96.6191956756266
96.6539659470025
96.6544249625332
96.6018246671647
96.4736672047985
96.417697108482
96.4394598302542
96.4343944941797
96.4866368294986
96.5621602731351
96.5621727594655
96.5067763533228
96.4674553811033
96.4185527160889
96.4062021823673
96.4820622558503
96.5568011543103
96.5605735628189
96.5992540214448
96.5338565308866
96.4179013269718
96.3906559092351
96.4495900637517
96.4701886895618
96.4657684794284
96.552290920729
96.6342784233228
96.5678161556923
96.5140301228608
96.5168384595519
96.492430339641
96.4490594468019
96.4340205275964
96.4756879255693
96.5446652789192
96.4768703821104
96.4377760836215
96.4586297964489
96.4286727057365
96.4389173218193
96.4831013341279
96.5269332275393
96.5729035014452
96.5362099485775
96.4859493170745
96.4189785870114
96.3587395770585
96.2960073998026
96.3348846813541
96.4011838791422
96.4246982904527
96.4982951637865
96.5644286638788
96.4542451978912
96.3613743211338
96.4022928532615
96.4234132323152
96.3715820238586
96.3477976909051
96.3043750090798
96.2951188496402
96.3870550432444
96.4388207295731
96.3014866752175
96.2012706265842
96.2282368978803
96.2223292127618
96.2468872039018
96.2835427495063
96.2207287368388
96.1984580795689
96.1929489826283
96.2033580144076
96.1920321590576
96.1456069374742
96.1252586775099
96.0905940568615
96.0753536721533
96.0887129259196
96.0516151093278
96.0770682845798
96.1325334789304
96.1572641353344
96.1332274252111
96.1043982429453
96.1003946082229
96.09697047984
95.99933878189
95.9161761686715
95.9139431993553
95.9399118822583
95.9711617297507
95.9673341076246
95.9271825311828
95.9137405803438
95.889851701512
95.8684780215275
95.8498581955398
95.8817713236342
95.8771985293673
95.8689789660801
95.8504427345993
95.7766146033373
95.7595408346199
95.8159795095129
95.8518550463522
95.8842911326746
95.9969051464718
96.090009184749
96.0720757245276
96.0855351784558
96.1187665148875
96.1533385528765
96.1785240060777
96.1953059267338
96.1671764967236
96.1488726416592
96.1914731570173
96.1856192589849
96.1036067100363
96.0322888471135
95.9881286840553
95.9224473908259
95.7794853669464
95.7338888929819
95.7328126837161
95.6539213821099
95.5862172951158
95.5680607343111
95.5278536568515
95.4959059366107
95.4663392331888
95.4046503717338
95.3586033715547
95.3274322440377
95.2923898482291
95.2847897134456
95.2435653485257
95.1890062109762
95.1579778403966
95.0434655111556
94.9247444714158
94.8778267516046
94.761372675951
94.5787046588301
94.3582405061043
94.1828269880792
94.0715179676238
93.9845748536822
93.9083736705191
93.8659422019212
93.8392046011011
93.8247576225577
93.8662145743912
93.9571604562763
94.0435138487824
94.1607859807292
94.2772485204169
94.4000500629052
94.5241933307063
94.6114857040687
94.710817546308
94.8683381191693
95.0147566572095
95.140182468014
95.2638052000872
95.3442463340184
95.4099831833903
95.4567596982812
95.4504905807318
95.45335306097
95.4615371650154
95.4936883228405
95.4882054390429
95.4593386561962
95.4388171989408
95.4212342457824
95.3746223781823
95.266853532703
95.1573080251622
95.0685282902291
94.9485414110845
94.9297927466904
94.9917477531319
95.0061919256124
95.01051372317
95.0582592969755
95.1608199742368
95.2360989320795
95.2226089894734
95.2384874009573
95.2625546366474
95.2288568993133
95.2037318181244
95.2762596341344
95.3101158181929
95.3019936554597
95.3404729694756
95.3738484449393
95.3809747298098
95.3839415057249
95.3825643612827
95.434016034337
95.4635654977693
95.4571678727065
95.4309655778069
95.4295128253609
95.4526679901413
95.4979724071498
95.5535237563581
95.5528316881993
95.5578640955162
95.6098785452819
95.6377604781753
95.6615611511548
95.689919089971
95.7053943675792
95.7105135797056
95.7493141932476
95.7671610138766
95.769232492331
95.8033881520912
95.8319261413371
95.8311340205715
95.8271928479049
95.8275197781848
95.8769315855401
95.9236442148823
95.892374386797
95.8201099878289
95.784539962162
95.7963629475494
95.8285399860229
95.8332870337521
95.814540567337
95.7896787257248
95.7788276757042
95.7882257257609
95.7968064145691
95.8223276428169
95.8490078915867
95.8719905002636
95.9131500674675
95.8944059515678
95.8721272403153
95.8803734797712
95.9032969673456
95.9243595724208
95.9307208451919
95.9137142498931
95.9125056141305
95.9223783377536
95.937284850387
95.9731501165988
95.9820171342191
95.9691474555212
95.9842187562777
95.9449725276946
95.8970602494258
95.9382361230901
95.9805602931168
95.9770588366729
95.961027385716
95.946149553295
95.9631744517777
95.9752460403489
95.9356100582844
95.8924926442123
95.9452704952171
95.99837225754
95.9728362325126
95.9416634884079
95.9260020546568
95.9036650849217
95.9233202607095
95.9748012573691
95.9926779194952
95.9701045867114
95.9816104458513
96.0043771620208
95.9911656221265
96.0093759877582
96.0412875720508
96.0120356439693
95.9838313459758
95.9886987180897
96.0285464109363
96.0459520145793
96.0493963256336
96.0774629940636
96.0784591409063
96.0241090967262
95.9932707180094
96.0488602879626
96.0963951457515
96.0550994356439
96.0277183344904
96.0368255817846
96.053813428803
96.0603133920397
96.0584084587712
96.0691956256687
96.0798043382879
96.0586216252676
96.0232756648807
96.0347786554065
96.0892264158324
96.082347564695
96.0239160030723
96.0098314938311
96.0625871105767
96.0950971207264
96.0648050312967
96.0150893440371
95.9903643027082
95.9950317831658
95.9979804858505
95.9599499817181
95.9224990617106
95.920864473153
95.9614414340553
95.9910675535781
95.9829838582102
95.9850889853391
95.9908661673091
95.9546056436705
95.9495428859498
95.9788240869388
95.9681982154645
95.965604574624
95.9757986357349
95.9685033327211
95.9791029635949
95.9966929557002
95.9854748569869
95.9992503307554
96.0859238707452
96.1017988057062
96.0675412952519
96.0474954242872
96.0425118275085
96.0631552588103
96.1155742104826
96.1455824908007
96.0897618170443
96.0434064374812
96.0833190222119
96.1236952590112
96.1760530194268
96.2151754859159
96.2345808095656
96.2031999280721
96.1290913678804
96.1187689658429
96.1495239406982
96.1672599471082
96.1950236842248
96.2087215459101
96.1401271675704
96.1109520692224
96.1889068541278
96.2444958575116
96.268043176625
96.2069098261154
96.151820553423
96.1864581236269
96.2281428276537
96.2198332444883
96.2130403584883
96.209856721798
96.1680924376016
96.1984384034927
96.2561650304777
96.2518169284995
96.2759089488544
96.2942925616975
96.2885777893733
96.2609884609832
96.2025661429061
96.1919130365835
96.2441951839789
96.276054249085
96.2653661310551
96.1844068124587
96.1348835155204
96.1910388514221
96.2385170020405
96.2364694565768
96.2858862481737
96.3356723974003
96.3163147094094
96.2672262063228
96.2338006335297
96.2211651099283
96.2510347575053
96.3060462643607
96.3413829358264
96.3154711318754
96.3030092160089
96.3376957018207
96.327438745862
96.2654794228313
96.303931284098
96.3694307928345
96.3496104992451
96.2915066659446
96.2413659060507
96.2452081085349
96.3089851000356
96.3209034341722
96.3130161734084
96.3446511813146
96.3555725326682
96.3270031615204
96.2827676931115
96.2874788052783
96.3409720699744
96.378346933576
96.3802756541415
96.3084123497318
96.2477034070764
96.308232007822
96.3788032131173
96.3952477395236
96.3670681876377
96.3120708549723
96.3069088634079
96.3083521423417
96.2878433915282
96.3217607693511
96.3776913174061
96.3111750382119
96.2604999436386
96.3346725211145
96.4155372110847
96.3780461970944
96.3356423475024
96.3725951696535
96.3576828537522
96.287628454806
96.2872402911005
96.349325190384
96.3191569740646
96.2152788972056
96.2594408162507
96.3422747668863
96.3155771207677
96.2374587242195
96.2206949629467
96.2481949734024
96.2590120563791
96.2876912024267
96.3153153781044
96.2838666461237
96.2323171070163
96.2392742837974
96.2723209356332
96.3055147484782
96.3286711747283
96.2923186622277
96.2166513920354
96.1584439145177
96.1263854693914
96.1021964697291
96.0906034842854
96.1162373054906
96.2023668594772
96.2694122915367
96.334530445134
96.4320177904677
96.3708848529112
96.4373258882653
96.6836442771788
96.6226658680214
96.5140163871305
96.4831682218785
96.579546338617
96.7308865023292
96.6772533655056
96.62848354189
96.5725353081146
96.3903495306997
96.1570212740064
96.1010494193497
96.2158508203254
96.2575390772664
96.2929273508343
96.3954272966238
96.5583159560337
96.5799950166535
96.4154580945965
96.4381460942881
96.4871957362121
96.3557402767706
96.2192765247489
96.1232451653526
96.1358771809581
96.1738356489248
96.2810883847461
96.305627363006
96.2733408978398
96.3111066042633
96.3584231772773
96.3426239536941
96.2770880008256
96.2592365127188
96.2606506119167
96.2317443508309
96.2539458160292
96.2889160168007
96.2941479848165
96.277542497273
96.2476262600176
96.2037952379482
96.1548101246102
96.1669743882705
96.2280846193887
96.3019337403062
96.327684796143
96.3083375052367
96.4206441501225
96.4451116646128
96.3945534346477
96.5448909655963
96.6317396641127
96.6116840244045
96.6467035984152
96.6502695928377
96.7340600743987
96.8232817271229
96.8095952815884
96.8081055030847
96.7395329896324
96.7217950467438
96.7742326329623
96.7298952007997
96.7675245800271
96.9095149670316
97.0025603144879
97.019871201807
97.0067319205653
97.0010440201062
97.054798837543
97.0568227849592
96.9824425675402
97.0705062977454
97.099680403183
97.0773135868683
97.2210282987454
97.1815028120821
97.0413356125973
97.1307177399565
97.3792512252693
97.3261884098763
97.2780817640065
97.5325362630943
97.6034733786508
97.5620748185271
97.3935797860706
97.1189125538505
97.1783712641782
97.5445971370534
97.7523687126587
97.6816594594304
97.495724495622
97.510847273008
97.6412079833875
97.6371206617945
97.675403272714
97.781521223231
97.7548837241734
97.7439734784254
97.9041660290504
97.8362855793295
97.5552460717612
97.6454180519752
97.9366190816021
97.933797494471
97.8493247693709
97.6872581717703
97.713443410923
98.2136117269524
98.171757376095
97.9722653817481
98.3187563206633
98.3315058794751
98.1619109319258
97.924588588755
97.813479772192
97.8717002904024
97.9475738223641
97.8449363272829
97.5068026001581
97.2895544121122
97.3050082549003
97.2951553829353
97.384104360659
97.5252576842875
97.5609484252543
97.4251818726173
97.2289293412333
97.1608701292345
97.0666750250675
96.9907971171193
97.0269276359341
97.0319261281014
96.9480491386043
96.8488243313458
96.7506869878072
96.7694545395593
96.8647779820729
96.9262321508017
96.9621942464319
96.9044379978828
96.8486844054934
96.9300036691337
97.0439369969698
97.0467387939315
96.9051518841576
96.8194025793226
96.8434165255159
96.9123630207108
96.9323656627962
96.8552950919456
96.9077760767627
97.0427335968771
96.9518056925201
96.8429842110168
97.0276557140424
97.1391859305617
97.0887685883219
97.1925464422273
97.3358321008622
97.3950214328594
97.4115602932666
97.3365042279254
97.3728266717622
97.5500196077837
97.5578118541618
97.5197037298147
97.590092340498
97.6302618647065
97.7814582962021
98.1054329326548
98.1745678854636
98.0294433862159
98.0335771036861
98.1055358684392
97.9708123878035
97.9914279040466
98.2218723395072
98.4531037257137
98.6009105014777
98.6431248376382
98.3556517299306
98.0751974915317
98.1064639099594
98.2110838175268
98.1746502558697
97.9211444303049
98.2586072080795
98.5365184724524
98.2395284408506
98.0475809624508
97.978263561538
98.1184851369589
98.3875912682304
98.5137969724119
98.3387613377201
98.0587362861248
97.8749037291163
97.7480326745263
97.7049773160425
98.1370706932696
98.2267569059998
97.7730624652706
97.6843060776223
97.7749575514961
97.9121111365684
97.9674668127575
97.8175228025582
97.9821063121165
98.3148468645677
98.5854546003014
98.4135423059638
98.0763400278881
97.8498884745507
97.6233405095225
97.4580855465072
97.434930897524
97.415103666996
97.5588882467156
97.5626287092307
97.4560316788105
97.4675146468877
97.4943676276738
97.3688012939039
97.1971205181017
97.1250485556267
97.054772835171
97.21657969192
97.4560258545511
97.5268483794162
97.4635412195119
97.3022026976523
97.2917077413014
97.2696196720062
97.3530824840604
97.4644329933409
97.3688362396885
97.2553733498988
97.3602565555716
97.2067486888414
97.1509890884192
97.3726612304669
97.4061233589059
97.3973912579914
97.3766974795728
97.3965516814249
97.5076918199411
97.4773049198002
97.4456200976989
97.5202128032494
97.5594185824983
97.5428598734004
97.487135565581
97.4979839283047
97.5219793724886
97.4738929783094
97.5429040577188
97.5277686324257
97.5278361554247
97.5499027174593
97.5890473931793
97.6053487945616
97.5935035157022
97.5618220745066
97.4999301276803
97.306000792428
97.2692102855733
97.5531023813596
97.7128672275114
97.680113917375
97.5884323447235
97.5340149975165
97.5071939962677
97.5060828898279
97.5584232399225
97.5320913736286
97.4547607949577
97.3285217940175
97.2348025902887
97.1092679955902
97.3554107385096
97.3982207729863
97.3101865697458
97.2763663170888
97.2849821888014
97.1754274566968
97.0327193442888
96.9649089778059
97.0969724173427
97.009246144159
97.1157237523159
97.1683160125343
97.1254400776698
97.1236513272926
97.2054718486062
97.2157661090822
97.1076704780479
97.0465508940403
97.1136987922069
97.1637575108416
97.1766350304522
97.0372473048591
96.9356879494224
97.01488821841
97.138039592424
97.100278066532
96.9934752377506
96.9261930572891
97.2502210426442
97.3388161721324
97.2383590211249
97.1536744270544
97.272973176632
97.2620873879152
97.3478402087358
97.3480128419167
97.2166089047233
97.0997538345334
97.0174673792603
97.2454039354967
97.239045401304
97.3472149921293
97.2935345816368
97.105612894872
97.0746510616576
97.0630638431207
96.8828701742152
96.7693359675497
96.4030714555269
95.9198001427714
95.468344505626
94.723406091521
93.7807426473607
92.4107602483307
90.9215588718888
89.1259806579019
86.9615584660967
85.3438943589327
83.4839676295572
81.4264531182021
79.551464284342
77.734428987466
75.9855034181528
74.2754724827104
72.4872807364945
70.7555956630794
69.1486437982489
67.4431250043036
65.9208710144848
64.72876935815
64.1355615449584
64.0143463967285
64.2781241162582
64.9528785212591
66.2131304108776
67.118321694984
68.0133255571028
70.7836810164062
72.1103175099677
73.8367276206301
75.9057789463987
76.4131051364874
77.1342446875352
77.8728952447888
77.7246321442444
78.1379024543827
80.6465225188744
81.2266928224999
81.483656019875
81.4435473073844
82.1992472906962
83.4001732432522
83.3402474702891
83.957756471102
85.4930038222564
85.8560477918033
85.6659248683022
86.474257874194
87.4655490594489
87.5850354088003
87.1061277077496
85.8707066373567
87.646789090332
89.9968926825846
89.2115677499471
88.5498671362974
89.8499964355883
90.4703334490896
90.2715889690962
89.9527193682554
89.4377333212433
89.4675973713867
91.1112832762464
91.5112200895482
91.1315526459706
90.9050476786185
91.1097148456699
91.1050860201046
91.4287289707
91.9322099882668
91.5128960429735
91.0168634083076
91.6088177418896
91.8815326935823
91.6032614386196
91.5658299237182
91.7716799789281
92.1138425639247
92.2940864924473
92.5386672582653
92.7680461035893
92.9428304181578
93.035652736269
93.1593021850511
93.2857643268968
93.3864740497705
93.3821217981952
93.3821557382371
93.2434197899741
92.9655099014957
92.4656217013913
91.8454985830477
91.0588857116901
91.000734619373
92.2420764162672
92.5744472026881
92.3247477639708
92.8535401135343
93.5011569616538
93.5299429558253
93.5737486323663
92.923465011231
91.9979737197468
93.8391044878122
94.57790480001
94.4275917497836
94.4113933389298
94.178471789561
94.4337540981638
94.2494071176233
93.8786936410034
93.7328887789285
93.7059971077031
94.6657543469101
95.2158941629107
94.7414124064472
94.3691477913443
94.8240229211573
94.7468205619628
94.3732776525818
94.2122555004564
94.2980903060883
94.025693445889
94.4450221130222
94.7350015918287
94.6895044186557
95.0358676540731
94.8202248383013
94.2168209654392
93.1197487660825
91.4694066630426
90.9299432616041
91.3002237395756
91.752335180697
92.4208730076862
93.199590063554
94.2282267168356
95.0444144720839
95.0124508790462
94.6304052558465
94.8014875673987
95.0255817320947
94.9993380487088
94.6393373898127
94.2509299708496
93.9666319892903
93.4110797453135
92.7844541383913
92.1187800376093
91.8176049082512
92.2249673678309
92.3300120712874
92.3454675749736
92.5063567936916
92.7811072419779
92.3369487180047
91.6183740982813
91.3973175879366
92.1764299990118
92.1200150902007
91.9676820399357
91.8907477571932
92.0071501113038
92.3765190975042
92.5249306949981
92.5879342593166
92.6425468249073
92.4555684734282
92.6331167357325
93.5150170004536
93.8147616382584
94.022439849968
94.4652591966087
94.9142689747995
94.9768792779913
94.9768983011617
94.893832567926
94.3527800859469
93.6724419292404
92.3223006466406
90.0841591277349
87.291018626076
84.7038414897765
83.2998618811598
83.1752135395807
84.4607181884736
86.414721102047
87.7507484232146
88.8040487819807
89.9650139219099
90.6221780978612
91.3967652199558
91.9165875029956
91.9671728721973
91.8601010126351
92.0312976126642
92.268280583299
92.2538616643659
92.251262951022
92.2311652560355
92.1690546976843
91.9123827842204
91.8274830862362
91.8099171351084
91.7553975543502
91.9949056681789
92.3806364501183
92.6623761086083
93.2055845800655
93.8176022263274
94.0942522326696
94.127490393578
94.0395323580665
93.759212059676
93.1603868382415
92.0919878467345
90.3798924952161
87.9454425221015
85.1897237718669
82.7668486185343
81.4893272319693
82.1004525728584
84.0272460972162
86.5130333084687
88.9741280690746
90.9828460971697
92.3466758375283
93.1356365882216
93.4897859082868
93.5681012624256
93.4839914798344
93.3119239853483
93.1196286068429
92.8457787910834
92.5023792244056
92.1512043485671
91.7378018842403
91.2819766278931
90.875638432889
90.4512089906323
89.9421203294415
89.2893233769425
88.4822776878326
87.5533085703568
86.5766679544906
85.5517123204561
84.5481915265497
83.5782307873099
82.6317968594006
81.7225321173641
80.7796824824362
79.8109604922657
78.8526228308045
77.8928984503732
76.9372515820431
75.9988034968301
75.0397006212568
74.0315353235548
72.997300680117
71.942016696003
70.9004296344232
69.9172428091521
69.0308842326006
68.2889167425696
67.6869998904049
67.1648034003538
66.6362355290344
66.0604438564707
65.423593043002
64.7437240661834
64.0568640306973
63.4130138033236
62.8748024327059
62.4693924672225
62.2329499857537
62.2168919815645
62.4360599298735
62.8458566593696
63.4125869010163
64.0915365191171
64.8138341454561
65.5300547914642
66.2198092136042
66.9256727001449
67.7054729685842
68.6029243006438
69.5987811978451
70.6209348975418
71.6204210415836
72.6164147254859
73.5982753415806
74.5499531086399
75.4730477838336
76.3775040395952
77.2714408834316
78.1860107993577
79.1087651645011
80.0122964731938
80.8920398899484
81.7409373985446
82.5168773956845
83.2109776991371
83.8124903195431
84.3138421331234
84.6994954156927
84.9209288938303
84.9794906727725
84.9942512401699
85.0431313805795
85.2065070441821
85.6155114171189
86.2578347704324
87.0159905952753
87.7584141592569
88.3552305238125
88.7571145068139
89.0288738659947
89.2069379207904
89.2953321015265
89.2690961536288
89.1162500474895
88.8438960941948
88.4589091837014
87.9708639056156
87.3808573293834
86.6413012193749
85.7121636646652
84.5851049249959
83.2275329003081
81.5959340555389
79.7467409699196
77.8479942020403
76.0624032367376
74.483395859663
73.1589378238379
72.0624906658652
71.1297669908287
70.325312383451
69.7047987532135
69.3637460074987
69.2865827154767
69.3652077686857
69.425696536279
69.3466613762431
69.0345879072602
68.4141727484983
67.5518832211891
66.6298470753655
65.7727844311355
65.0003375856983
64.342100228723
63.8512742200035
63.5261419459301
63.3533923731279
63.3108577678353
63.3480804348653
63.4462087449991
63.6042128099385
63.8527874189267
64.2441154036621
64.8163623246689
65.5480566153782
66.3891038718598
67.2898665812268
68.2143595681196
69.144942746555
70.0399015382162
70.8919029617046
71.7291465219553
72.5358630153534
73.2801691983716
73.9403005234368
74.4987344855884
74.9457653188875
75.2539999854148
75.4418556320296
75.557567254105
75.6092345089907
75.638906749943
75.7211120860241
75.8613331871361
76.1049971915015
76.4911817483632
77.0193852450191
77.6243057385284
78.3004934694743
79.0312645969842
79.4318973593931
78.6846855311463
76.4736343503672
73.8002500410885
71.4499851943947
69.2925379354726
67.5831735477863
67.0911560366245
68.0781703089702
69.8456739626928
71.5795557890488
73.017567021966
74.1779897867705
75.1007017262124
75.842657235335
76.4784049785262
77.0655502765967
77.5798908387399
78.0069248072123
78.3598142365978
78.6168495353915
78.7813476003389
78.9369333361678
79.1095179299528
79.3008591638396
79.4139237480929
79.3171339608234
79.0038010970314
78.4904745295049
77.8386518055465
77.2148701614932
76.7969254141821
76.6981569184427
76.9181985269972
77.3111522068411
77.7772541558839
78.2571268000596
78.7595178192084
79.269382077867
79.7069178476835
80.0812012635341
80.4158877788986
80.726552183529
81.0143505265333
81.2963421476516
81.5678234734164
81.7776239774437
81.9932376160909
82.1905623936373
82.3621464177989
82.5624315014584
82.7640780092197
82.9322163288977
83.0860826617411
83.2695235100831
83.4418172692792
83.620359896633
83.8259547080002
84.004011983487
84.15453926355
84.3137557355627
84.4268112455232
84.4457149777716
84.4585225668517
84.4106801115919
84.256346675713
84.0532371537216
83.8364422701552
83.6166238328557
83.4449449012922
83.3817675070612
83.4189691762996
83.5337869879164
83.7088262677959
83.889017696084
84.0080830082874
84.0409202606794
83.9178024896582
83.5380062400818
82.9186311597187
82.017057564351
80.8510209842373
79.3057168078152
76.8981759673461
74.3161397718051
73.8039063127176
75.3209191351812
77.0367862320334
78.2344359910787
79.0167438792595
79.4960092288407
79.8022068966327
79.9396095378067
79.9415735396086
79.8557256014626
79.6084088459616
79.1429655657085
78.6573298497744
78.4455716119211
78.5428400237797
78.8721938041857
79.3142691266178
79.7085746443977
80.1188708585727
80.5414280030394
80.9412863727422
81.4162260848873
81.8741975293249
82.2093356671222
82.5249643806515
82.8658409107177
83.1541167823255
83.3436970379803
83.499905816922
83.6284449418782
83.7304083936836
83.8431566427212
84.0184029262802
84.1593864862236
84.2397470632039
84.3315245501612
84.4339293941045
84.6305029877738
84.8427075484502
84.7156207336787
83.9443446530672
83.0029293716032
82.6256181135886
82.9110785392225
83.4841666470411
84.0529557493706
84.6298092802124
85.2017560563736
85.6954629178782
86.0885632860007
86.3890025233166
86.7667666865075
87.2206160812574
87.5618220261009
87.8802524526242
88.279724400454
88.7510506948598
89.264682439007
89.6590863332997
89.9852775661712
90.3248624151574
90.6770756584344
91.1469811477419
91.5292045477886
91.9024771226913
92.2884804680246
92.5462811405993
92.6031763687079
92.3146560551585
91.2627762456423
89.32674265899
86.5053931387667
83.0424497585892
79.2243897427303
75.4435333743497
71.8146946691793
68.0312901561259
64.1597450809159
60.7849177185513
58.7423170751172
58.2293326203058
58.8025125222217
59.8400617584624
61.0944918664499
62.4448237037352
63.758311726551
64.8186728284664
65.8084036524697
66.7890772568695
67.5867801453532
68.3388095028709
69.3077545223248
70.3024977347308
71.4329535449895
72.3307264206407
72.8792946178777
73.5568061864859
74.4044631012231
75.080675557474
75.3824888361053
75.4450218256776
75.7444837547529
75.9662563292467
76.1535288356569
76.5884180895042
77.1167800951108
77.1888893466727
77.2259943517978
77.2719721274176
78.5564251092263
79.0717406717305
78.9701047710392
78.8821013293046
79.2517619994751
79.4937680811358
79.5062875335002
79.9804550605105
80.275109914763
80.2307167576835
