1798
3999.43349933624
650.420452594757
1
128
4
95.4523923423774
95.4374541225362
95.3845270816701
95.3352038295017
95.3863063701823
95.4804975474748
95.488610403573
95.4812980403012
95.4377240526865
95.3943587283117
95.4222625053375
95.4108477426696
95.4021590281577
95.3887609583233
95.3908342666597
95.4091602232242
95.4292116399649
95.47185470985
95.5048464193596
95.5392645327805
95.4914815544821
95.3586373071844
95.3483507119937
95.4429274592117
95.4428307976998
95.3994074621985
95.4130693297825
95.461615792549
95.4455677035958
95.4533424303885
95.5199885499119
95.4838643162001
95.4760181953277
95.4716720183982
95.3309937670222
95.2821443980812
95.4159124714343
95.4747813220913
95.4368306770302
95.4227012366838
95.4698541511416
95.5055363108429
95.451439297729
95.3975397113509
95.4618025168377
95.477754902939
95.4675195201172
95.4666606417456
95.4513662830953
95.3375104944544
95.2277595657095
95.281386243581
95.3802625987965
95.5111458107654
95.6410918620468
95.6488118788268
95.4801252071737
95.4073998708151
95.5196571891263
95.4701363728667
95.4829007263514
95.5684176526749
95.4388567122785
95.4059927193566
95.5599478107203
95.5379369907139
95.446546539551
95.3429866089692
95.275793994682
95.4199273687823
95.5213345752364
95.4752482379467
95.548834144216
95.6347003719818
95.6365661922338
95.617571611702
95.3688690901416
94.9614601581824
95.2109897532789
95.7163800022872
95.8680120686685
95.7527905653291
95.5837843381584
95.4910455851996
95.3357047893887
95.1437472252587
95.2995635004588
95.5625801474695
95.556229995336
95.6118589563037
95.6386320581112
95.4979612640134
95.515125764363
95.4307801396642
95.2044620350955
95.3997008123221
95.5387262486363
95.3646888046579
95.4689240182724
95.7389444999599
95.8028756554012
95.5951326996268
95.3310488522245
95.3836491599154
95.3780035360919
95.3414758897537
95.4878523316483
95.6030560604187
95.6542692520337
95.6268792692257
95.5552817737579
95.4772120594762
95.4459638950579
95.4426965032869
95.446213767984
95.4863376795522
95.4486413940423
95.4256125076301
95.5018731689512
95.5280282925064
95.4896499920503
95.3977733502901
95.3400242938744
95.3316274413318
95.3536230776842
95.4444941699969
95.4803082993681
95.3811742468388
95.3520596747481
95.5103431820736
95.5686646677612
95.3356040856366
95.1649098184636
95.483229376527
95.5758816660834
95.4221828652064
95.6008138886412
95.8523323174032
95.842669489589
95.6640029438489
95.5001715113596
95.4113962910813
95.538600191324
95.7553300155184
95.8512541944055
95.7390235089734
95.6426851917018
95.5016785827595
95.3807758835388
95.4095305041667
95.5170901241814
95.5347906599137
95.4885114153842
95.3907070274973
95.4292821589619
95.5088998786125
95.6773336884972
95.7964187904885
95.6777850793805
95.564542416406
95.5799722218128
95.5712910800257
95.5757192821019
95.5305761140201
95.4031650986228
95.1390125887841
95.1520998621437
95.4507080383171
95.6084355994117
95.5804408975101
95.6430157280435
95.4549632566361
95.006202925552
94.9128065580748
95.3430267817394
95.4806775660005
95.479768942966
95.7235879012573
95.6908528911791
95.4791685893798
95.3627254552437
95.3080277231198
95.1869902921666
95.0935041978251
95.2025446701008
95.2527822081651
95.1003935809376
94.9150642334321
95.0713722930778
95.3749882894069
95.5483046197188
95.4257885852357
95.2295469790014
95.1114365380872
95.0446217877689
95.1276253917634
95.2191032710561
94.9898802570358
94.9232908341938
95.2633989745756
95.4053375009227
95.4109145262842
95.3167116439639
95.1548969583202
95.171802731916
95.1389413255382
95.1617275631844
95.3245367131154
95.3524013053957
95.2649231313909
95.3361641108852
95.3326495411763
95.2420267484326
95.2380190547782
95.2673021024235
95.1800905938932
95.2816226139646
95.5257982397239
95.4767380025205
95.3029065121478
95.3256933993577
95.4276355754832
95.4007247483046
95.3604319531005
95.5368929639141
95.5727884189735
95.2911871421913
95.1403661327294
95.2420082137792
95.2346639670366
95.0280677632761
95.0057001915411
95.2810096180622
95.4206702113695
95.4238791311801
95.3856939454466
95.349791823481
95.2731405940942
95.2443215176233
95.2947353193888
95.3549866324746
95.2200342160744
95.1417183350868
95.2478904141012
95.3380410407868
95.3745747051064
95.4247469807384
95.3799699516712
95.306218871376
95.2502609989518
95.1904083348582
95.1384557378218
95.2329202693407
95.3321485908327
95.3359232946952
95.3996498817619
95.4530539906897
95.433686731787
95.4362957387532
95.3100693128796
95.2366816362307
95.2069822575022
95.2274787900773
95.3208246443564
95.4333817268355
95.5842805376879
95.641602542933
95.5762524583962
95.4752346033929
95.4064524914313
95.4635851903522
95.5011301108168
95.455206150518
95.3725133674996
95.3879699913554
95.5156317586061
95.5778683802696
95.4911327388486
95.4712798736956
95.4699857688219
95.5343224567396
95.5340542467622
95.3038142283604
95.175568816946
95.3120745939302
95.4727157760082
95.5681921666647
95.4861816612318
95.4285646720021
95.4596446771731
95.4206896466427
95.3523223792513
95.317192764625
95.3524937764677
95.258827495456
95.1362094126614
95.1800410575083
95.11122362025
94.9857428951993
94.9551863995406
94.9275447459376
94.8870526139665
94.9205374995286
94.9553908642932
94.9295205139483
94.8897273793968
94.8859099575438
94.8697362314083
94.906642580577
94.8938614068666
94.9196702408409
94.9962834533899
95.0275022560164
95.0502063873071
95.0823545171026
95.0984336393448
95.1550132702214
95.157462423539
95.007772504747
94.9223716995152
95.0743467253516
95.2080049735355
95.2663316942816
95.2710079975145
95.2701404171208
95.3136112197521
95.4285485755761
95.4788558020522
95.4215414801383
95.3047593596803
95.3209912399086
95.3879065184667
95.335549760263
95.3095964533334
95.3157808645083
95.2829729652191
95.2555678799907
95.2587710882993
95.3207557036205
95.4518027087726
95.4557284912451
95.3309368012858
95.349437723257
95.3655353872613
95.3110584490633
95.349581045884
95.462166774541
95.3493086307347
95.2245848477774
95.2966640974787
95.2936085534392
95.3123661161166
95.4673180007591
95.4386000539142
95.2773941030685
95.2319696107067
95.2334276247721
95.1591006627022
95.1872935606631
95.2198080543452
95.1842684750973
95.2081342892772
95.222240014354
95.2132956270934
95.1701470630639
95.2170667665094
95.3540140993475
95.3692663868147
95.3825357886228
95.3799350334645
95.2712686285237
95.1946037171617
95.2388567540993
95.327614505074
95.3768799083337
95.3108468905786
95.2198367503997
95.2108503258189
95.2229053380986
95.242823597861
95.333197473225
95.387358921719
95.4186900783939
95.447685284479
95.3648282321888
95.2804019480747
95.2738806711546
95.2621212042974
95.3011414228997
95.3781063828483
95.4426838957715
95.4197988729171
95.2990714138711
95.2369575523859
95.2853743113586
95.3038163401964
95.2757506714747
95.263466947837
95.2778193189705
95.3172372879793
95.3762083904042
95.3524357390263
95.3046743955812
95.2841558623814
95.3100742324026
95.3875294690702
95.3669537267923
95.3363126127638
95.3703272766995
95.400335314661
95.3921627162888
95.4128406232958
95.4444552894768
95.3989001865585
95.3556815667681
95.2963989971846
95.2657818088055
95.3437072396341
95.3936170707871
95.3445269526847
95.2848127737006
95.2384564868974
95.3024661701719
95.3341035689581
95.2767135032442
95.3036192920193
95.3637273668509
95.3374545809923
95.3047316050755
95.2935787689333
95.3157833642419
95.3413826378684
95.3491023579521
95.3298901945494
95.2732338000844
95.2946380616268
95.3815210876137
95.3875867218186
95.313515331435
95.2881327004978
95.3231728686019
95.3432026996471
95.3357828478775
95.259505418909
95.2297968567138
95.2892605160413
95.3510321689308
95.3657627286049
95.3529696470621
95.3223108634893
95.3388490723648
95.3442210011953
95.2801918245301
95.2869999381916
95.2904144629664
95.2259987688366
95.2616568875188
95.3289195222597
95.312615735973
95.3036245855364
95.3066329123944
95.2669847623546
95.2604868866554
95.2202137876251
95.1353661533553
95.1028657444879
95.120321771825
95.1550442874058
95.1777550822053
95.1648293504651
95.2107183220018
95.2408913088447
95.144746628515
95.0387062497439
95.0458259351677
95.0919535093565
95.110079995061
95.0230918571466
94.9143830017518
94.9186344250455
94.9768293458845
94.9723168751967
94.9415762697389
94.9473440979925
94.9357870819157
94.9365282063743
94.9999448740276
95.015679019751
94.9931366326036
94.9693410380871
94.8529750826671
94.752511485717
94.7962955346682
94.8470171679064
94.7924820538125
94.7634675275352
94.8050675940387
94.8084714791581
94.7677249983132
94.7231741483211
94.7720679901282
94.7994044306851
94.7157258398913
94.6625308345466
94.6838004155348
94.691934077476
94.7108000270969
94.7115835358788
94.6795826092104
94.7376592092813
94.8433229677842
94.9184478190798
94.9372443980711
94.9493919770964
95.0064320233289
95.0291620993661
95.0673789554663
95.0720162411515
95.054703892231
95.0591583207636
95.0374365532006
95.0525853826171
95.060415983394
95.0088373094069
94.9309648420806
94.8484139806872
94.7472636988423
94.675825846692
94.6166275693932
94.5874906361046
94.6024617837702
94.5149814747586
94.4409918047178
94.3963298821046
94.3192862357995
94.2795779935494
94.2710537713845
94.248071689868
94.1985347189185
94.1576003098377
94.1212452808152
94.08021525608
94.0169895542136
93.9118854897327
93.8151775844317
93.7324400995813
93.6141996066929
93.4412867029174
93.2897254935357
93.1745539103291
93.0164625518711
92.8421148637634
92.7035511673242
92.6206018894824
92.584318142684
92.5661530507768
92.6216077511143
92.6933691731879
92.7378761828441
92.7917192827287
92.8827079169373
93.0522710977999
93.2052398219616
93.2810516587057
93.3958314712212
93.5597390735059
93.7188490745103
93.8442730235469
93.9708549685105
94.1012360211765
94.198982082158
94.2346889852466
94.2469842459728
94.3161261958785
94.3924372387585
94.4077405813289
94.3743365799018
94.3295455842252
94.3036510063133
94.2715237311473
94.2249473492166
94.1955927967988
94.1619642273082
94.0566376111411
93.9492117538518
93.8869196205351
93.8382350459045
93.814386592915
93.8478148234574
93.9271052427639
94.0282802391701
94.1081649037855
94.1118144781551
94.1184154018873
94.1632263826914
94.1634603677437
94.1787259745955
94.2400153923449
94.2721039584493
94.2757720026657
94.2401833327667
94.2278655187576
94.3029122054857
94.3384707560999
94.3442994991237
94.3741221141049
94.39245268707
94.4212626146427
94.4476351568697
94.4780328402341
94.5293626466923
94.5150431387929
94.4833252358233
94.4983570375044
94.4778508348742
94.4657948786222
94.568276581717
94.6396759060632
94.650325351339
94.7007691322126
94.7381023066373
94.77402245568
94.8206400508224
94.8029218734165
94.7916684089466
94.8809106344716
94.9629612128672
94.9438289889084
94.9065892319277
94.8838111344242
94.8884254603666
94.9215792778611
94.9445212320497
94.9641097462346
94.9788394654374
94.9566036530754
94.9190983782327
94.894073613915
94.8676362813694
94.8775463770229
94.9218428119985
94.9375961850267
94.9217827962181
94.9019072728395
94.9251066864563
94.96642087294
94.9699792221643
94.9645784639998
94.9639111345334
94.9469062616478
94.9741524358727
94.9875908312218
94.9909478170171
95.0197616059653
95.0251762077123
95.0614380175226
95.0818437939047
95.0457950302617
95.0577069208639
95.0831083951743
95.0646286528266
95.0651741283071
95.0848810702447
95.0870044881892
95.0919810346687
95.0891463712316
95.0734129396991
95.0976264457458
95.114871935269
95.0615371385128
95.0401702304498
95.0701350618545
95.093609351122
95.1080098530552
95.1022486087001
95.1118926343106
95.1538771307513
95.1517367742156
95.1055659862872
95.1002966325012
95.1462917450685
95.1348320062829
95.1238662050691
95.1677394153426
95.1603607152147
95.1368290957411
95.1567675945906
95.1838139469733
95.1743557291383
95.1598028619452
95.1881017617463
95.196651383077
95.1713395091104
95.1514752081989
95.1698612795534
95.2013030879693
95.1948559358875
95.2236897653138
95.2453710581222
95.1991081798802
95.2050158752007
95.2523254250545
95.2765116385612
95.2931637052824
95.2538733021973
95.1951716754385
95.1942610490725
95.1904944036716
95.1919157293696
95.233825572732
95.257981228875
95.2717393629271
95.29827297397
95.2768759232667
95.2457211237725
95.2390156081323
95.1737475358894
95.1188000050889
95.1461525945926
95.170389717609
95.1710879743363
95.1623569595315
95.1398838004212
95.1280879219769
95.1424417552428
95.1411106006718
95.1321097814577
95.1521695778716
95.1752511743392
95.1613997335961
95.1316456578141
95.1481317637387
95.1745215231665
95.1485537912067
95.1392030825541
95.1884992317275
95.2418723293181
95.2435280035294
95.2050218791334
95.2044286643347
95.2125550727873
95.2094964750968
95.2402204743061
95.2699951998438
95.270563741578
95.2608045777897
95.2848751719375
95.2639106559697
95.1928040872094
95.1919210265172
95.2985407417546
95.4375179661156
95.4412777251673
95.3520314202186
95.3153597754454
95.327488389148
95.3270751404385
95.3158837067952
95.3177394585489
95.314559827457
95.3004978810504
95.3143555234017
95.3697399529673
95.3674311254414
95.3717357258318
95.420080311998
95.3924430410106
95.3460363523755
95.3585326373656
95.3975396677647
95.4435668483181
95.4683054696689
95.4518814362291
95.4667535532151
95.4676487913749
95.4430939939175
95.4277498407453
95.4629302448571
95.5525591882734
95.5736856225861
95.4982835960908
95.4064621799473
95.3866154341515
95.3832441639944
95.3494470477328
95.3735399786877
95.4486953125765
95.5151313077732
95.5014510066305
95.4713288678169
95.4813342809811
95.4517658216867
95.4364132363235
95.4598097459553
95.4840986165027
95.4752868035345
95.4588265423562
95.5384396883066
95.6047445413952
95.5625465283232
95.567205779564
95.589466158194
95.5437147774943
95.5586576580347
95.5787871257984
95.5532536434935
95.5581158433375
95.5716184744642
95.5290949210184
95.4906028387648
95.5500676865663
95.6074737817636
95.6106495652773
95.6678192384313
95.6750214116261
95.5600684307247
95.4874817859075
95.5436066084393
95.6230614011518
95.6404047404701
95.6644684674557
95.7106526302154
95.657522490254
95.5806059425075
95.6107824432086
95.6230617503387
95.5834347223899
95.5653152109167
95.5468253508483
95.5142897385039
95.5398800852654
95.6284922033999
95.6931672724467
95.6787831063597
95.6039748624204
95.5874769669455
95.6337484003039
95.6812153574372
95.6772329893502
95.6264159892051
95.6308038429977
95.6753087055184
95.6805652933343
95.6378937705374
95.5771564960948
95.5859495432507
95.6730145210998
95.6761619872062
95.6015897384153
95.6250941713359
95.6523886022136
95.6202957620323
95.5691727027029
95.5216531319187
95.5435253877419
95.5673553812094
95.5723314402431
95.600135318235
95.548733396267
95.5205125943318
95.6001641436074
95.5838863942678
95.5197445495121
95.517804191503
95.5375297691939
95.5470290050271
95.4870455559671
95.4608377515202
95.4666654629364
95.4949327141519
95.5283076692307
95.5143284914142
95.5067359885704
95.5186142658738
95.5057278513657
95.5264334134531
95.6397227536411
95.6833838829023
95.6887226526149
95.6973717766904
95.674911828948
95.6654285143771
95.6758564070116
95.6846287399229
95.6550076256938
95.6280520742214
95.5626332203975
95.5140495179221
95.5044943191971
95.5408835373423
95.5732074921147
95.5794256899879
95.6258792978245
95.6392967383422
95.5865390195222
95.5624155299292
95.6181823649508
95.6441740812792
95.5069436810505
95.3299582757557
95.3152612834524
95.3841959197513
95.464262648046
95.5638975578977
95.6705060665518
95.701302221874
95.6811068073227
95.6829206100867
95.6664330350805
95.6342173874763
95.6177396586369
95.6089832130137
95.5804699913593
95.5645008658404
95.5813221319096
95.6113398001484
95.5929219847901
95.5861302313817
95.6287962971175
95.6120356783883
95.5550407313831
95.6366354195767
95.755024737821
95.764140890737
95.7820969844238
95.7999982423984
95.8406210427538
95.9131589749066
95.9449638024861
95.9959189188497
96.0155282172612
96.0555332843931
96.133680066414
96.1583634073937
96.0634330634878
96.0520812958588
96.1391279441319
96.1660692813829
96.1691190502751
96.2034878153647
96.1133765008376
96.130942843823
96.2704416256946
96.2041609960927
96.1546198276988
96.2518960225357
96.342831623781
96.3286261106674
96.2064332261325
96.1828822528695
96.330230866288
96.4950221622223
96.5195532951608
96.5528911975298
96.6760058574577
96.8031399430731
96.6374386711298
96.5178382226102
96.77434458743
96.8683158032484
96.6526455530368
96.5272028480651
96.6367869931568
96.8772732567188
96.9309096778666
96.9726829216252
96.9887017999676
96.8001205945055
96.6629046313486
96.7138410344841
96.7583518773164
96.6748504374076
96.7532087484739
96.9550890549673
97.0336841506744
97.0708403732938
97.0642504588213
97.0780253867357
97.0812818354503
97.049745772764
97.2791647675301
97.3750334024197
97.1154499767082
97.0307510990366
97.1753732235036
97.0173398597625
96.7424923419647
97.2889374649621
97.8851181722237
97.8090707270551
97.4675492235327
97.266046676466
97.1553247550977
97.1480589500149
97.0689355180832
96.9381843609776
96.9965637177677
97.0653396450201
96.9378414871635
96.7623370998809
96.8463928679697
96.942358103316
96.748058119448
96.6178891239575
96.6718946553451
96.6589776602511
96.4575726536479
96.3418635922339
96.3481492277446
96.297671356937
96.1520907442296
95.9930425208236
95.9491316403298
96.0805256138487
96.1954544458741
96.2567249282238
96.2930194344372
96.3390620342708
96.2832153404264
96.1459350460943
96.2164435929196
96.3535585812075
96.3705679977903
96.3830204928343
96.3569306860388
96.3526497370728
96.3268368140078
96.3195475599391
96.4183837919809
96.4954565819547
96.4731266600857
96.5099259646543
96.4217679008974
96.3447131459914
96.5226823430514
96.5836316229353
96.4765045353951
96.581337807236
96.7349240852923
96.7395554101358
96.6709316054516
96.7473434387544
96.969824398084
97.0757958078709
96.9833573059913
96.8910963519838
97.2337687491304
97.6446161357283
97.5928476111171
97.4589925601471
97.6549911682388
97.8674079126106
97.4732868807002
97.3523304055404
97.593875984011
97.7848242795826
97.8349226397866
97.5947893281296
97.272320940036
97.1395219753397
97.3724299604774
97.7840235048777
97.7763871071952
97.9474121314615
97.9940317089364
97.643249915498
97.3299387230332
97.5161885535206
97.7521414264712
97.5029342098185
97.32727136635
97.429148336138
97.4493770498516
97.4636286312907
97.4624287445426
97.254037018154
97.0062210170671
97.1326115982442
97.3242746398959
97.2702392869569
97.2091768487789
97.2545926820239
97.144442925089
97.089826277962
97.3002376312351
97.4011245897552
97.3919159954874
97.567622934788
97.7538961353662
97.7637723606886
97.3645305511199
97.0747735682309
97.1639438078957
96.9884311294534
96.7475671663809
96.7548186487933
96.783405064476
96.7957504839751
96.7436901009598
96.7822687521412
96.8435618267254
96.708021363582
96.5673890064306
96.7199851863862
96.8585545845245
96.8123304746384
96.7495204513967
96.7167601886537
96.7054390477103
96.7955945934779
96.863637310226
96.8801800856334
96.8904638239926
96.9225604389899
96.9572509624253
96.9852625070973
96.8455103097991
96.7951879904728
97.0347265313226
97.0722483988186
96.9163516879948
96.878191757584
96.9337696677993
97.0616029982054
97.1196443003904
97.0118734075031
96.9205753909002
97.0486863597486
97.1524932674859
97.1834405850815
97.1808584920089
97.1911451114352
97.1833543032332
97.1670393069808
97.1466616029782
97.1714248009327
97.1153814934748
97.1092855438949
97.119433706569
97.1103438329709
97.1569256432448
97.2388623386635
97.2663099209698
97.2744877785228
97.2209726157396
97.249731296304
97.262797811633
97.2006828947465
97.153027468434
97.1119752313122
97.0848984495811
97.0571132752943
97.0387500351381
97.0580811072173
97.0065127058115
96.9969394066352
96.9995561077503
97.0097139807986
96.9963671448659
96.9647155953696
96.9203374359861
96.907363686547
96.8742019956296
96.8066761588484
96.7265063076035
96.7367239187399
96.6912022861114
96.7405400726816
96.7564284671026
96.7185820018896
96.7456844554232
96.8334015310175
96.8463121956097
96.8080542851423
96.7712605080386
96.8047621324007
96.7948875542526
96.7923713761418
96.7857959364179
96.7653974473727
96.7828418737493
96.8940772169093
96.9239280258983
96.8776224485491
96.8044936143568
96.8714322258631
96.9218974908682
96.9433433272921
96.9526566138959
96.9757598899894
96.9197735478765
96.962421940719
97.0375831021239
97.0614949933663
97.0341713130534
96.9788350689893
96.9799630208356
96.9233086991456
96.8803011499123
96.8780477956229
96.8394829498854
96.7737752163761
96.6455171578017
96.451332499674
96.2783896274979
96.0939735843924
95.7338484265422
95.0920933474317
94.1363856781064
93.0502549200347
91.6008537279501
89.91150922472
87.9426925811839
85.7264197018579
84.0974456982146
82.1878950501823
79.7210296934168
77.8328558652778
75.8819777678417
74.0204990133036
72.3108926229103
70.4236354037293
68.6600768580426
67.1899667661954
65.3355455678808
63.4703034607676
62.3129772504611
61.8178296677468
61.842743096227
62.2146862428183
62.9796374068295
64.3535169125163
65.4376047560833
66.5106536324262
69.071501990491
70.4530683899697
72.1747824616859
74.0372933473262
74.7337680464203
75.5041589663327
76.3618459622483
76.3686227769838
76.8438351380357
79.0373384054645
79.8227745402107
80.1546128120857
80.1970118624573
80.9441417389427
82.1125434702379
82.2408399883316
82.8430928130532
84.2599329469936
84.6858087103103
84.5718821275207
85.3075113421741
86.2722909509815
86.5999639985695
86.3252748092018
85.2623693316091
86.7422668137384
88.9537924671828
88.4495751553901
87.922496790272
88.9521098865178
89.4610387690628
89.3342885028115
89.1868874456067
88.8268583883421
88.8762194595583
90.2100480536614
90.6335961338745
90.3373621006686
90.182930020887
90.40070530995
90.445755761715
90.6832565189023
91.1195606034328
90.8806725496195
90.4264581017826
90.7964195606487
91.037336704162
90.8178444811871
90.8038841267543
91.0646784295341
91.4013980437243
91.6088657002205
91.8333139450575
92.0708960146836
92.2829882710603
92.4406128950952
92.5831450629514
92.6841248453533
92.7426496023021
92.7508477153497
92.7199634604638
92.5611068641285
92.236757318376
91.7268791003341
91.1924213469573
90.5656590794806
90.492151987224
91.5043819803905
91.9277977830511
91.9088024029864
92.444414179549
93.0172629516192
93.130668254233
93.2274315743933
92.9207217828065
92.3143280015792
93.5829702861985
94.2306150272869
94.1012392206257
94.0466515240783
93.9587117711962
94.0758673616915
94.037689848015
93.9391425279701
93.9590831397455
93.9686230154657
94.4837486323129
94.8369857505683
94.5558393355661
94.2785978924
94.5201377756123
94.4578650132691
94.196774527463
94.1551020835589
94.2377519734238
94.1332574509904
94.4186067240924
94.6704359752212
94.6305469625512
94.7111989099592
94.5785640246163
94.1422574686211
93.3330818131856
91.692636228693
90.2829398300924
90.4785751949625
91.152110293734
92.0508071980563
93.0284056459957
93.9979512793668
94.6461800758386
94.7927704687534
94.6971694289025
94.7458184854209
94.7377076047373
94.5378092531509
94.1951530349186
93.8282415734197
93.5094380721784
93.0614256457463
92.4953226990082
91.8519469464177
91.3463903409063
91.4689443675282
91.6833665815671
91.823196558954
91.9933457552563
92.1538712562263
91.90436993164
91.4493946716064
91.1655877551452
91.4191298247621
91.3849098568642
91.2983680262276
91.2916079512423
91.4269500814123
91.6800713147714
91.8141207967419
91.957737838678
92.0861777279971
92.0489492140983
92.2857154908138
92.9994641317314
93.3777455318359
93.6850130575547
94.0981868518553
94.4453184351274
94.5739291370117
94.6004725222335
94.5052943302482
94.069316190979
93.1046577505403
91.4677486238675
89.0297749335668
86.0804877637814
83.3632059465604
81.9335545563143
81.9447683439503
83.3487943767947
85.3585959046078
86.8820862028898
88.1461738602229
89.3634638091235
90.1353004247742
90.8220944735237
91.2373118435651
91.3074232602595
91.2634146832609
91.3741603352368
91.5013426603527
91.5380751521901
91.6058957007527
91.6192023271629
91.552759261299
91.375040177351
91.2089378111978
91.0874109260068
91.047588558617
91.3091414115734
91.7693863872435
92.2460550483268
92.8246005498167
93.2972165499531
93.5047008849765
93.5342999917482
93.4177673417483
93.0920757725578
92.415448374512
91.2330683557727
89.3886405582033
86.8132905224744
83.935640867136
81.5316112440351
80.3241377578604
80.9151517454954
82.9292633735606
85.5735480138212
88.2012086681516
90.33080834699
91.7342209484662
92.5356960209788
92.882135749398
92.9540949505652
92.8774647018963
92.6879001549324
92.4228937589334
92.1109629647334
91.7577782365067
91.348175822527
90.8812525086686
90.3890213700268
89.9148939472918
89.4474323334556
88.925142193634
88.2479261786978
87.383354146981
86.3701039684636
85.2829871923827
84.2021769292756
83.1779798488219
82.1703398169393
81.166390245572
80.1888627759515
79.1973327458912
78.209686371039
77.233570076024
76.255853446788
75.2669265162241
74.2882940685923
73.312759696475
72.2908616746695
71.2135303673335
70.1064179212632
69.0125200782334
68.0001650229494
67.1140085168128
66.3544613213777
65.7155914862289
65.1714122501721
64.6266287399107
64.0146899020906
63.3539529333022
62.6768917464119
61.9965795214689
61.3612957866733
60.8301702140129
60.443507413529
60.2202062733575
60.2201205661947
60.4424327443598
60.8858757332847
61.5003725400691
62.1891138074508
62.9043513885498
63.6224581249402
64.3406070160408
65.0903435567103
65.9194067649941
66.8591761201194
67.8754316645351
68.9341835947955
69.9908959970824
71.031463153081
72.0334749499724
73.0122079029472
73.9685886547777
74.9334449427655
75.9074120256127
76.8712138012605
77.8214901154163
78.7622462125781
79.6943327914622
80.5769361666521
81.3941240892342
82.1250874315407
82.7556333262914
83.2729152695306
83.6418437651278
83.8584580412643
83.9415044052816
83.9458608693955
83.9942678323954
84.1972438350804
84.6370004772839
85.3351367880937
86.1633548673705
86.9483437822927
87.575210602563
88.0115653110313
88.2920941192079
88.4580394565933
88.5365341219638
88.4963382011018
88.3110154793916
87.9912438052511
87.5537902113449
87.0129028549595
86.3498168087061
85.5200999089414
84.5216692305483
83.3217573696859
81.8599530457743
80.1407685036092
78.2302802674931
76.2368165807847
74.3777277599959
72.799211969421
71.4570215177291
70.2977853164869
69.3107312270031
68.4977856819914
67.8687284060324
67.5036022696548
67.4390298204756
67.553587697088
67.6209913802583
67.518689344663
67.1578068924458
66.485607545109
65.6180235818085
64.6912760733394
63.80121279867
63.0153190946072
62.3764137216986
61.9086101442376
61.5847391342786
61.4316243077259
61.4127571729098
61.4558457294395
61.5725963690654
61.7684789397556
62.0529056405872
62.4702943181043
63.0438794916777
63.787578900274
64.6534354914144
65.6031895541463
66.5617052880567
67.495857998502
68.413371839798
69.3082037402468
70.1823434842677
71.0113370457895
71.7626167599583
72.4249776332241
72.9858496866377
73.4253181437174
73.7435799870143
73.948780625857
74.0507240674484
74.0845106289161
74.1131923171042
74.2110484896472
74.3861513887371
74.6752049779128
75.0957148123361
75.6241855438185
76.2294104868342
76.9311260600041
77.6711419700151
78.0166608422374
77.149865096596
74.8073656208581
72.0112387679217
69.6156026547791
67.4339662933109
65.7082032767698
65.3011126953959
66.4120157698939
68.2600980363352
70.0358213730345
71.5200817922581
72.7221626968695
73.6766410607503
74.4774839192323
75.1477194209554
75.7308893019663
76.2583547319524
76.7252050333257
77.0716664385524
77.2988310832914
77.4697262140885
77.6503000177718
77.871369305602
78.0668434889402
78.1289068447548
78.00921023649
77.6826170326086
77.1253263169897
76.4243883643262
75.7861086453456
75.386529862122
75.3276740905887
75.5810657907797
76.0090124008283
76.502145458006
77.0195751728655
77.5226280509232
77.9954291355881
78.464404273037
78.8975479657424
79.2784486731875
79.6262080905184
79.9378308941672
80.2051005690942
80.4469784608279
80.7107294500502
80.9532095771934
81.1350633309713
81.3260398372312
81.5175730655914
81.7070611988845
81.9136546542588
82.1058636690322
82.2806214108263
82.474280432247
82.6752907193675
82.8574934642117
83.0428356989888
83.2167940953253
83.3493216723283
83.448801430291
83.5166574331676
83.5047534933253
83.4242456746789
83.2951094904165
83.1108336956751
82.8634320830219
82.6283707604503
82.4716053083053
82.3924754659011
82.4240532195308
82.5678080067071
82.7696696964908
82.9409064459058
83.0551143012332
83.0933700643607
82.922731695664
82.4892979692914
81.79732065189
80.8691641841461
79.65956677605
77.9334155068396
75.3250027489457
72.7524231854629
72.3590085743937
73.9782984675609
75.7680014753599
77.0312939527952
77.8892601613191
78.409803822216
78.659919805787
78.7537705824965
78.7840287324681
78.6805518398911
78.3740614296522
77.9048171196043
77.4634957493562
77.2567343383294
77.3298123460305
77.6655552774236
78.1395577530175
78.6144540594679
79.0702927116773
79.5001741302007
79.9487435372232
80.4290050673104
80.8803126051485
81.2414653727738
81.5496875532401
81.8323977318472
82.0915132256963
82.3699109104504
82.6031699803396
82.7084439437116
82.8416246588335
83.0225659390236
83.1771941290246
83.2595101596946
83.2933785839659
83.432647288304
83.6744696051229
83.9161606162434
84.0385293763541
83.8056898630663
82.9882712239028
81.9920053872671
81.6203936331854
81.9128709281606
82.5251156598442
83.1959947152333
83.8171664288921
84.352719782516
84.7990406739865
85.2432353519372
85.7172779853968
86.1347639459009
86.5754977336901
87.020779114218
87.3816302072923
87.8045274926519
88.2640920134073
88.7089778398907
89.1264259638733
89.5080300735814
89.9229648430841
90.3138250364297
90.7522950269912
91.1398636559756
91.5546655546853
92.0379084312747
92.2813320292822
92.1410692683384
91.6926991874832
90.6910171055219
88.6998444739212
85.6362366221579
81.8890183661164
77.9304292862813
74.0303070731763
70.2099962929124
66.3143323629444
62.4347072046166
59.0672626956195
57.1625414736148
56.6750762310628
57.1947985161456
58.2511430138185
59.616951488799
60.9744289298782
62.1823757069138
63.2034652243592
64.1508701027425
65.0917684811851
65.9831738593984
66.9966807086004
68.0044781426622
68.8644271511273
69.8735127685907
70.9752984451843
71.8622076647827
72.2977661345573
72.991243067912
73.7188063741849
74.2188834681503
74.5327610948312
74.7785605450335
74.8802106414986
75.132346513045
75.3342418844053
75.7963954958493
76.3535361518312
76.5096539548627
76.4278674078169
77.2545624955719
77.4512392331554
77.6379641856111
78.2803587017467
78.6298939156513
78.5819479548415
78.545920721216
78.9698826597391
79.496619141825
79.4582053000624
