1798
3999.43349933624
650.420452594757
1
128
4
97.3235967204164
97.3966781338027
97.3857851106352
97.322104215715
97.293041751055
97.2952792419022
97.2971654879653
97.3587185675783
97.3428895551122
97.3232144911779
97.3286530207403
97.3095729112862
97.3442651090797
97.3389866982891
97.3762274475519
97.4075566433942
97.3612815181864
97.3754748443255
97.3778094679899
97.3623670353384
97.3450083087744
97.2392925157651
97.2149615790503
97.301414708218
97.3204307648662
97.3334001704839
97.3954120640603
97.4327178912098
97.3353065691014
97.3331548070414
97.3996071668459
97.3785139943188
97.3979716588142
97.3952311677628
97.3101253194056
97.2641801358501
97.3477748235249
97.3851684423537
97.2936213618334
97.2441741274369
97.3687830858236
97.4291928600083
97.3270541894674
97.2816211790273
97.3688920723981
97.3858177670601
97.3976098391826
97.4296247158449
97.3835255971989
97.1941955707069
97.0324675018916
97.1575064996297
97.3145574064056
97.3884535048273
97.5208770576815
97.5311595965509
97.3314066725209
97.2829746324852
97.4301288108368
97.3786007872811
97.327284109574
97.3745993983607
97.2780011484249
97.2894567389676
97.5080478412006
97.5187147469535
97.3751182663885
97.2206239913558
97.1902916280909
97.3030693642644
97.3542426206071
97.3154984043089
97.3660903173813
97.4397242675432
97.4989777793001
97.4343822640154
97.0996490147678
96.7624082213246
97.0501429530965
97.4739740472117
97.597598906805
97.6128576196092
97.442300051346
97.2079010797021
97.1049805376229
97.0746028778506
97.228073623656
97.4254207972409
97.3796508633886
97.3824564814337
97.4141960684514
97.339336883731
97.3388588586542
97.1814203535706
96.9942534371163
97.3006270847791
97.4393294541293
97.2727019280966
97.336848122413
97.5804920585435
97.6636381191402
97.5359651673642
97.2818878635329
97.2286672691764
97.1860621885617
97.0809932999359
97.1866838877782
97.3365666209255
97.4055211178625
97.4431008776036
97.4389977048857
97.3995184254582
97.3678828227528
97.3916029777545
97.3786445759373
97.3149087986382
97.293923974943
97.2895183439364
97.3282673738707
97.4194557675357
97.3836659661732
97.2478065632075
97.2028087595691
97.2157393563509
97.2682199616454
97.3392271402631
97.3484406971917
97.2580533027656
97.2726024513124
97.4271056056213
97.3721754199957
97.1891994342812
97.0423735909843
97.2599886215061
97.4109605136018
97.2428549223137
97.3541441165762
97.653814814396
97.6817726309598
97.4567028364792
97.2848104156661
97.2299259655601
97.3245938426085
97.5282339861262
97.5874981002382
97.4633677627313
97.4541637389801
97.4201793159354
97.2904837802447
97.2543570963105
97.3780686899551
97.3740348684458
97.2461550992301
97.1553259060417
97.304657153034
97.4410416015008
97.5278752002366
97.5618460234124
97.4302690504823
97.3909840262458
97.3998188141895
97.3433861530378
97.3957975007286
97.385731180601
97.2403547582711
97.0703340504236
97.1684599471734
97.357835064192
97.4346410466854
97.437222706581
97.4889648390631
97.3672259173676
97.0970159998859
97.0921974619656
97.3742865281316
97.3341267846312
97.2327921428899
97.528361900947
97.6037636751762
97.4536401670134
97.4115817811977
97.3849034802466
97.1766489575741
97.0244678957867
97.1336956434805
97.1888103782517
97.022123723875
96.8082659616722
97.0231460007743
97.3618619193288
97.5148798120543
97.4335698797379
97.3067998518989
97.2562707956971
97.2112029799075
97.1799159215653
97.0487136269818
96.8445959627715
96.9714222413984
97.348867776134
97.4604540665286
97.334887231625
97.1740876274437
97.0921529288866
97.2213400343643
97.2764279904665
97.2104251110218
97.2054872119834
97.2319080674304
97.2314450085633
97.339506493351
97.3908352763727
97.3329200067281
97.2910629702815
97.2115826545522
97.1922869199593
97.3802606746618
97.5398504782144
97.4404992186411
97.2655664775471
97.2828667886069
97.3551618089667
97.2783646282702
97.2328177090173
97.3822966461175
97.3658662079218
97.1502660012997
97.0962566980737
97.2263322889058
97.3449294410652
97.1816837952622
96.9395615266691
97.2126528459006
97.4405156431921
97.4582882506136
97.4517294552063
97.4373929796547
97.3138823463959
97.2334540538498
97.2627543260935
97.3530375277063
97.3014643841609
97.2226307103711
97.3363491263148
97.4281279612201
97.4488918557067
97.521465434086
97.4872969360161
97.3897157017647
97.3440398904151
97.2462544636427
97.1474839592804
97.2311303600761
97.3421376972757
97.3609109828134
97.3651556929791
97.3888860661206
97.354918473263
97.3485655930211
97.3570881530639
97.4067384343539
97.3879049535232
97.3543857141837
97.3436884807916
97.3456483360349
97.4348163217054
97.5105075575051
97.5009026170062
97.4178205938075
97.3921421820608
97.3912092947362
97.3571224434289
97.4853673260555
97.5241921025034
97.4142692940432
97.470435419935
97.6582567178097
97.605626298144
97.4724445142454
97.4629175559848
97.5631204152261
97.5392498159529
97.3704415994232
97.2838280798395
97.3789187391599
97.4636501597129
97.4391153245786
97.3882083387955
97.3914119245414
97.4967622663222
97.5661030127483
97.4303401876898
97.3402757860627
97.3590898155838
97.2464761093405
97.15487666377
97.2221657438837
97.1736043213871
97.1098558360338
97.1084878619986
97.1167889448604
97.1113084288935
97.093652314935
97.1228704672843
97.2061757194288
97.1725640854351
97.1304013300985
97.1829725640781
97.1630198888755
97.0558789935984
97.0993549743889
97.1561164668109
97.1614074023058
97.2059496292377
97.3194063369973
97.3894153187683
97.3197291151165
97.2648018383394
97.2265832175238
97.1424118731536
97.2067503475544
97.3277656993798
97.3758497294677
97.3528797231461
97.3725904998061
97.4512570467601
97.4962488544389
97.481188675316
97.4439891628792
97.3616724203094
97.3601050164269
97.4087176451117
97.379140566081
97.4102958321241
97.4076336849588
97.3850887390739
97.4343387172781
97.4539559354949
97.4675069607536
97.5039949287014
97.4899086214314
97.3799451642756
97.3485446413866
97.3729803503986
97.3818428305399
97.4675120473469
97.5549729552887
97.5150878991594
97.4727607084501
97.4320597015879
97.3945206834946
97.405263628354
97.4368219493765
97.4437003360489
97.3866318554167
97.3989404551707
97.4314031403891
97.3424853697956
97.3627536328562
97.4099506637484
97.4351079763554
97.4436711034847
97.3616283729562
97.3042122354464
97.2473289823394
97.2809251665659
97.4002715032476
97.4163431589437
97.4125981934155
97.3920216709622
97.3496823701283
97.380394242072
97.4116489766414
97.4229633590133
97.4515410260964
97.4452377432073
97.4042033624011
97.3695780890747
97.3423851938975
97.2722787453845
97.318958893105
97.4274077017456
97.4554592866122
97.4437780599802
97.4020870749311
97.4130293842474
97.4097387447413
97.38159772527
97.4275732483385
97.4618139476745
97.4427364030853
97.3443405184129
97.2663958621056
97.2934392453316
97.367720927663
97.3808219573294
97.3548202646224
97.360072222984
97.3555459916665
97.3848688987669
97.4386825347416
97.4773784638925
97.4427984915533
97.3562135410346
97.3529314967064
97.4201541874326
97.4132211384632
97.3726040783733
97.3971316633307
97.4404479682188
97.4485665630658
97.4842683742261
97.4856662894713
97.399587043272
97.3691927868249
97.3751931193881
97.3991287243785
97.3941917282954
97.4194330353124
97.4943603154043
97.451259764738
97.3961266979989
97.4781213987666
97.4611949907505
97.3519513521369
97.4003224294775
97.4854052166836
97.4538782503322
97.3690361497397
97.3492385476055
97.4211002405378
97.4248700268271
97.4048875795023
97.425843507462
97.4015909260795
97.4250743100092
97.4991835215921
97.4802973077696
97.4088205734388
97.3868109343942
97.407890320396
97.4116114268203
97.418251633249
97.3994541719052
97.3940773503442
97.4548017736531
97.5398071250088
97.4961224102627
97.3667387223827
97.3784597979811
97.497845327623
97.5449097626398
97.5609103157281
97.5483930416465
97.4394415802884
97.3953612381414
97.4474760737909
97.4426271372283
97.410211521673
97.4082632580223
97.3938053039273
97.4062221049371
97.4441380627437
97.4152731608883
97.3670033670931
97.3773368451151
97.3756749513959
97.3279517989742
97.3075082300288
97.3296776094698
97.3744532377017
97.3717733091631
97.325279372085
97.2637988582692
97.2263151745436
97.316271379025
97.4309939619543
97.3598600907489
97.2161025560799
97.1868560295999
97.2375558166587
97.2831291444163
97.2606412697906
97.2358460832482
97.2873549169451
97.3055613671151
97.2726484547886
97.2320167278056
97.2678038909931
97.2655679491645
97.1543789047572
97.0769056763059
97.1004268029111
97.1912509004719
97.2151742336097
97.1820951766886
97.1880377097034
97.1639575296051
97.1059489506152
97.1281021095392
97.200084853225
97.1807449117182
97.127138432789
97.1326767389171
97.1652218285467
97.1726257240848
97.1417809693012
97.0889786108165
97.0647234412289
97.1429361729844
97.2080344949587
97.219179339017
97.2402499441369
97.2538693325636
97.2847202518473
97.3141416641654
97.3772188484168
97.3752299216094
97.3370280714387
97.367020927303
97.359411747895
97.3050698802262
97.2818178123348
97.3332059509361
97.3285684666385
97.2486010512866
97.2332055852194
97.2131999576542
97.1239171310711
97.0710001223468
97.0462015399107
96.966334073769
96.9147577711722
96.9043127629333
96.9296222112838
96.9379667837103
96.9186812449421
96.9260019956171
96.8791611466027
96.820444977624
96.802425114962
96.7414917926373
96.6942425816788
96.6641662371922
96.6184968043334
96.5859216322031
96.4996881924626
96.3499541183793
96.2364384138429
96.2139716956482
96.1827876825487
96.0879623913328
95.9853491800024
95.9179843858719
95.9039270526825
95.8979029366496
95.906784897946
95.947031840342
95.9895802909984
96.0204682236928
96.1009570473948
96.2202862522693
96.2621679372944
96.2808819994849
96.3761181491931
96.5049523573003
96.6197131406051
96.6720760553004
96.7123377782111
96.7861086706744
96.8570965353527
96.8761533691824
96.8914663806756
96.971172838421
97.0318075402041
97.0009806983043
96.973689330695
96.9758523758811
96.947390592992
96.9281288542896
96.9348867855975
96.9015847096252
96.8341066906714
96.7692872869576
96.7324894695415
96.6869892243027
96.623635802089
96.5929130277764
96.6156941648462
96.6999898853744
96.7814723621109
96.8155677013491
96.8390087327259
96.8406086998055
96.8235292087286
96.8316771398506
96.8667461988797
96.8984251932282
96.9268128934255
96.9154500269406
96.8817542000662
96.9068585322921
96.9663977821169
96.9725597169017
96.959630156868
96.973351852956
97.0106208621573
97.0617204523941
97.0628712066052
97.0455187506698
97.0686809540193
97.0357642342367
97.0114632486607
97.0326776187917
97.0146278876031
97.0428529251178
97.1646754549935
97.2027250402892
97.172484387968
97.2081316368681
97.2161248337084
97.221627667913
97.2620279932313
97.2373839148383
97.2107448218554
97.2793421342527
97.3583522424735
97.3684855589377
97.326835737042
97.2721068536938
97.302943290033
97.3499356459381
97.3236688462748
97.3226382512148
97.3705652247494
97.3758787877146
97.365423946166
97.3538224122612
97.32267966341
97.308706906599
97.3125133338004
97.3355500303054
97.3504778737463
97.339763304424
97.3521989341472
97.3619930807291
97.3483149296671
97.343889374088
97.3464498823049
97.333865815868
97.3589204561113
97.4023556111417
97.4052240589643
97.401203867738
97.3883412635048
97.4068796547229
97.4510874032675
97.4344288159878
97.4226495849251
97.4194429425182
97.4182440024563
97.4422703984261
97.4483156102838
97.452911471646
97.4595529558351
97.4583504457734
97.480052474965
97.4998701390367
97.4765704472509
97.4386642394929
97.4346840688626
97.4737519513933
97.4953051378735
97.4723528675427
97.4308774908597
97.3930029754978
97.420053887227
97.4597608485813
97.4666665169791
97.4856636389766
97.5121823762059
97.4889552038652
97.4643917193123
97.4930156299752
97.5194041576352
97.5130074648958
97.5220271681516
97.5393261983747
97.5101127740629
97.490603650208
97.5238519300189
97.553228018736
97.5502324944896
97.5206039068198
97.5367943260912
97.5585247349767
97.5389461950865
97.5462217722995
97.554860511547
97.5090184087875
97.4929567525787
97.5386151435308
97.5609014200402
97.5872147206328
97.5695936781081
97.5193957839041
97.5339556915672
97.5500520517311
97.5471139664999
97.5642769118253
97.5589088517575
97.5337210446226
97.5745637466359
97.6155502338636
97.5891478637522
97.5391921225547
97.4993927822428
97.4726763940824
97.4646120950144
97.4931400664467
97.5262862385647
97.48575604301
97.4093396051938
97.4124465236665
97.4683307769454
97.4935641587758
97.4921289674234
97.4930758739188
97.5054843048914
97.4850005488783
97.4367911250164
97.4313414132084
97.4579715529615
97.4490529901276
97.4231455434149
97.4661326437366
97.51733052661
97.4832964560455
97.4702604974303
97.5128672917073
97.513025170184
97.4986503283038
97.5237551317091
97.5202948929339
97.4992718059983
97.4974690183717
97.5326424257957
97.5741430822354
97.5720837168105
97.568456818952
97.5865046372558
97.6222584178664
97.6379952645267
97.6311427892435
97.630596543833
97.6033572730753
97.5684335182512
97.5587209111729
97.5637439415546
97.5808031340047
97.6080829155856
97.6025688415547
97.5702897415631
97.5611478746682
97.5978540330975
97.6432301218588
97.6311896489968
97.59747540685
97.5892575550216
97.5973093458035
97.6439937007331
97.6663509398723
97.6376077062177
97.6115377204757
97.6317045424406
97.6611755459685
97.6905687329829
97.7600272542739
97.7429220269153
97.6813096257574
97.7290792596399
97.7171099055396
97.6934721917299
97.7155540451808
97.6746731736328
97.6304839298579
97.6555195292706
97.6823367763454
97.649889055779
97.6356481771618
97.6481156796423
97.6855151929596
97.7018098268704
97.6956491519481
97.7483639448999
97.7245659466452
97.6455770907799
97.6855664754146
97.7788288112787
97.7915313393967
97.801698743172
97.8049149975443
97.7224672277776
97.6978909921285
97.7722887067011
97.8222641466684
97.8193907933747
97.802677622636
97.7222099232733
97.6950658995003
97.8038326215611
97.8444517367524
97.8426453392317
97.8637054327794
97.8187558813707
97.7477749924437
97.7244669985758
97.7860942461042
97.8403756877286
97.8056154052149
97.814740264756
97.8469712766486
97.8487868547483
97.8543491091964
97.816246029411
97.8079663632574
97.8038664455422
97.7567694527539
97.7269077360391
97.7374016919194
97.7912506866344
97.8493034400638
97.8474195340935
97.818829211034
97.8202863037887
97.8291209103952
97.8325229693287
97.8389206007441
97.8289795154884
97.8432363594521
97.8832833577506
97.8726047778364
97.8557113773218
97.8472611237846
97.8335499753364
97.8310695384914
97.8947921698496
97.9201919644474
97.8301291635894
97.7947363015986
97.8430152995171
97.8862006477
97.8572814892213
97.7746395784792
97.7356937207283
97.7301972008077
97.7837013959198
97.8520363757844
97.8154104386939
97.8056730842898
97.8459285349439
97.8239178027721
97.7980157102612
97.8115951575156
97.8205827526006
97.8279519963814
97.7974437714488
97.7699645297939
97.7787836931004
97.82372368503
97.8767373677926
97.8950816987343
97.8829605356034
97.8466363694075
97.8406784424851
97.8685528668944
97.9242704185184
97.8872605396757
97.9019264019915
97.9548356578194
97.9033717065613
97.8821315896723
97.9172434863837
97.9327171441984
97.8908503469787
97.8481846459386
97.7960331503822
97.7436457658111
97.7214228923703
97.7667538056915
97.8462268542164
97.8458890302494
97.8418841564207
97.8465175206472
97.7840647527898
97.7882116013008
97.8813932833098
97.8726196485705
97.6987267000966
97.5312302046545
97.5779553507474
97.6841882849752
97.7311133189633
97.7575285700963
97.8159837682814
97.8494191386904
97.7990802777605
97.7349284223522
97.7766462290182
97.8296450855503
97.7634443220979
97.7133023142701
97.7533688407876
97.8081140422503
97.8122915011173
97.7719835279099
97.7757621068171
97.8170025042114
97.8118904724409
97.7638556898565
97.7379683228426
97.758199708671
97.8176570825519
97.869892439876
97.9255939888126
97.9013068812773
97.8328579079437
97.9130692865986
97.9547462998112
97.9372016714732
98.0305980037131
98.1645888515608
98.160493008143
98.0937290633809
98.0706635362736
98.1040057539233
98.0810188371588
98.0533647861437
98.1831024532797
98.2806954526927
98.128229398357
98.0671195897907
98.1022021033904
98.0363705574581
98.1670765627607
98.3748249208215
98.3461406137798
98.0701321307105
98.0427441936673
98.2835613956654
98.3796890277836
98.3562340261989
98.3734414454653
98.4279744660115
98.4051644585849
98.4009221883271
98.4518790622547
98.5098271444545
98.5217925914005
98.3946826820767
98.2654020884234
98.3530494793549
98.4665397860361
98.5598281007835
98.5451899911628
98.5047969716314
98.4988533361998
98.4748143517965
98.6016581582857
98.630030518267
98.5837524701853
98.6102872265274
98.6022902547068
98.473358355434
98.5009155368172
98.6713592171505
98.7896666277431
98.8499512688441
98.6946879163743
98.5403574176046
98.7023724339434
98.7536543594241
98.6542857364457
98.5381949453316
98.520257222676
98.4800402911195
98.4865369280982
98.7646407834391
99.0928093922665
99.2163428012325
99.1118503657854
98.9659869362883
98.9120567977825
98.9536977201709
98.9085162670113
98.8267125568728
98.8538824803294
98.8822601716062
98.8156199141004
98.6323889401219
98.6346553449272
98.6731166280145
98.577490695027
98.6160274225446
98.734974607681
98.724132291674
98.5881554678682
98.4432012414749
98.3884355280998
98.3257681391755
98.1938853138843
98.0348684732371
98.01832924181
98.0974834554412
98.1872713150041
98.361278638464
98.335159760124
98.2096819499698
98.2628787681403
98.23520913776
98.1918453742503
98.2950097192675
98.3612515640842
98.3303040670523
98.243095747036
98.2316813803797
98.2043646699738
98.1399146200614
98.1866808409025
98.3521990668492
98.4028350212447
98.3893133640759
98.3589766379343
98.3111116965604
98.4419438074224
98.5287703906118
98.4563314937782
98.4041312262165
98.4293321886251
98.3396662824783
98.2513954298803
98.4132450031687
98.7161823815625
98.9265522710927
98.8808980444027
98.8008647474563
98.9021826862254
98.9618026100668
98.7979825769635
98.6043089635347
98.722524542446
98.9538649732918
98.8787030210842
98.9935436302185
99.2164372077242
99.2195338644315
98.9775607831237
98.7444848014236
98.7800000186197
98.7725961500362
98.8025970415548
98.9882397105984
99.0562348269533
99.1614208899042
99.0100275518652
98.8418562877681
98.8804570114583
99.0868032993965
99.2205427736975
99.1090787006739
99.0886531053454
98.9924492944015
98.836916430997
98.5810140376926
98.5726362650088
98.841289155312
98.8460718995738
98.6951024302238
98.6012574310021
98.5122031454087
98.5416759382501
98.7182521167798
98.5890339037827
98.5594085908267
98.7507545650529
98.9434625746273
98.9989039100191
99.1072380276242
99.3000013673985
99.2543209055034
98.9662262632588
98.7552038190964
98.906968597505
98.7837526266403
98.5822822416803
98.659251011888
98.6328657365779
98.6616491512074
98.7111995803886
98.657065549939
98.5442830649063
98.4992325354738
98.4496607429062
98.4546975534707
98.5544446322133
98.6389605552078
98.6443404593951
98.6326990358904
98.5577170760679
98.5671150004007
98.6997121928689
98.7292670278913
98.619008709637
98.6071927444259
98.6405294368284
98.6386374805417
98.5558641921036
98.579374840939
98.7434989076506
98.8135694989788
98.7616765546821
98.6929166509293
98.6588999912967
98.6744122554449
98.7209739370898
98.7326909744571
98.7156177788665
98.7609964587127
98.7573829878861
98.7692605905941
98.8025197158484
98.801591919575
98.7606052946077
98.7575587190574
98.7774851838781
98.7910262027739
98.8194047169747
98.8298271175364
98.7583399399359
98.7160848536603
98.7348339028884
98.8035395825826
98.8146806230461
98.8279758704961
98.7814805447987
98.7349717405011
98.7547052967074
98.7562757828918
98.7349783536213
98.7671957500026
98.7778718550905
98.7457708095304
98.7205380666526
98.7133934087152
98.6697052372868
98.6444136574516
98.6485104541396
98.6769033728153
98.6297149506091
98.5819973505278
98.580077968369
98.5711735996493
98.5767637650177
98.5406370628141
98.4390521244217
98.4434959909136
98.4370371843805
98.4720353594059
98.4565513999449
98.4410954531904
98.4449172943115
98.491151462594
98.5224194707834
98.5436714607581
98.5224731499546
98.4884672460755
98.4592916445509
98.4553589827844
98.45362173269
98.4412575727408
98.4363934068066
98.4760034201353
98.5020236564619
98.4934333041469
98.4074953551211
98.4276822751255
98.4682880792775
98.5280674286298
98.5400065101805
98.5169092365342
98.452096396043
98.4734225799424
98.5058634124077
98.4919211592017
98.4693040390036
98.4231286396903
98.4276153506638
98.4093278170258
98.4255775819501
98.417619281526
98.344873408261
98.2763319371065
98.2218886986614
98.1217844102714
98.0157537594794
97.8715524977471
97.6580259411044
97.3172660046331
96.7659918370321
96.1475077503507
95.3448528708028
94.4404574045143
93.3506214566743
92.117924696802
91.2716554486025
90.2871836357859
88.9661999549019
87.8682039620316
86.8267307940502
85.8703739223033
84.9568312715156
83.976719076755
83.0958411568964
82.398988238628
81.4843152929554
80.4052747698209
79.6323720926627
79.3595887301418
79.4109737900927
79.6413547947882
80.0474570479318
80.712484650035
81.2783269178657
81.841026149147
83.1363749031271
83.7492471975102
84.6498283880545
85.732921937223
86.0965655402379
86.5777716439293
87.0980147484002
87.1762674177844
87.3994036732143
88.4334016144405
88.7704266521395
89.0515540226788
89.2001274529814
89.6646498558037
90.2708527414772
90.2910289278573
90.6844781084539
91.4930390600772
91.6809796893598
91.6288143615787
92.1186059521113
92.6639458145716
92.8518534909145
92.7422348918426
92.1373356916234
92.9526060689291
94.1435384936313
93.8439150128132
93.6417108682396
94.2192562512905
94.4629450184804
94.4288941503668
94.3720409300217
94.1664260993378
94.2219853164459
94.9729470003733
95.1402736273186
94.9956313167049
94.9832873443269
95.1439915722294
95.1510897929585
95.2842099407155
95.5179956823136
95.3544936297806
95.1639374789116
95.3735681683107
95.4110318020808
95.2719173237772
95.318867170663
95.4898013129355
95.6609592662317
95.7664202161517
95.9230844879204
96.066185958266
96.1910932734701
96.2901489994362
96.3671015988453
96.4206093269702
96.4674209372433
96.462638201081
96.4091164133667
96.2975365851047
96.1324242709674
95.839366408087
95.5330929715876
95.169172526191
95.0934683322815
95.65773734351
95.8962388345958
95.9285609571402
96.262255586149
96.5338655526693
96.599048250393
96.7125269524271
96.5408003551373
96.21224143707
96.8286898005853
97.1335541360236
97.1377963514539
97.1768083910128
97.1484482250825
97.2003290117746
97.1342372046011
97.1188902475976
97.1395741039004
97.0773241932157
97.3132426965489
97.4971805172309
97.3914558794243
97.3074398550996
97.402176519193
97.3461570313433
97.224834437377
97.1906045597905
97.2205135778321
97.1524049121781
97.3044124895573
97.3897302846797
97.3654317294948
97.4589795535886
97.3837558670768
97.1421223866677
96.6795240529347
95.7394924549867
94.8791361101533
94.9335058159351
95.3567928483154
95.9663455891938
96.5436372343695
97.0505683111487
97.3872457710349
97.4886457764047
97.4886440368328
97.493476714023
97.4314288623172
97.2955514893977
97.0822243496357
96.8768520381096
96.7138991595108
96.4625695817244
96.1112144393002
95.6910018495547
95.3950099835379
95.4846116146722
95.6208150614107
95.7453860896858
95.8388564972602
95.9051022160294
95.7711382260215
95.5587312700109
95.3793288317849
95.4624064966108
95.4296926821394
95.4491386729529
95.4760578682047
95.5355642700439
95.674016351239
95.7396709640803
95.8214737660839
95.9172134515652
95.8902114499133
95.9989521150084
96.3669565489727
96.5677989486803
96.7743943946634
97.0106392880101
97.1945590994309
97.2613230696306
97.2840826203081
97.2252025395816
96.9636925307209
96.4051264689999
95.4362573738487
94.0771099789722
92.460543036092
90.9659758611376
90.1700483293029
90.1616556567336
90.9554274586619
92.0818518658507
92.9315614400126
93.6434028999723
94.3120887367485
94.7273337417465
95.1331268493272
95.3607743114841
95.4055241843639
95.4052447584821
95.4704011208776
95.5509308193609
95.5835958844316
95.610690796375
95.5947225770104
95.5430078062568
95.4367784430414
95.3533707405822
95.2873719896022
95.260038976998
95.409241050859
95.6582092859892
95.9084781293491
96.2284289514795
96.4824208132736
96.5909132158622
96.6116313228158
96.5337377369069
96.3305611254342
95.9492357032123
95.2669656892011
94.2026680939244
92.7603533311086
91.1820743092297
89.8667175197318
89.2122820480359
89.5357003468385
90.6344769408408
92.0999389988325
93.5669955286515
94.7632900374655
95.5580406756182
96.0135561291375
96.2110150553407
96.2393835092013
96.185758776257
96.0841790960457
95.9406846652008
95.7698317920616
95.5637247386038
95.3126385884413
95.0277303384634
94.7631098412276
94.5246586518798
94.2889057288301
94.0092003050168
93.636705774766
93.1655531045141
92.6164082714686
92.0381246021089
91.4553690080126
90.894755926129
90.3394787075593
89.7916552795578
89.2450641655579
88.68176695991
88.1300780149023
87.6039483197552
87.0870673897887
86.5741042868223
86.0668612317804
85.5408843371036
84.9874532417042
84.4333374268114
83.8658270038701
83.2912541281119
82.7686310263124
82.313783440498
81.9174215170058
81.5769515945787
81.2986131968058
81.0355822080528
80.7332966144327
80.4044724812759
80.073566530218
79.7390169461705
79.4251858952709
79.160217104321
78.9690733900014
78.8731039044154
78.8896433521586
78.995476963838
79.219793572784
79.5218010485546
79.8502108459793
80.199113913321
80.5642441586846
80.9360634692755
81.3258345113354
81.7617813304072
82.2564029256624
82.7827388304553
83.3426532159345
83.9017812057007
84.4373015403375
84.9689062945759
85.50619953158
86.0418012559235
86.5704290704479
87.0802352220618
87.5962039987252
88.1304603823895
88.650038581597
89.1673857159729
89.6569818053569
90.0987649402436
90.4989366645574
90.8587503115894
91.1548364191739
91.3528213462247
91.4584582164513
91.4863807799977
91.471249560423
91.4998937906911
91.6021555326534
91.8285314750794
92.220206700909
92.6859930254625
93.1197673875169
93.4794426406989
93.7180636059287
93.8491422157731
93.9188123728369
93.9536091585489
93.9242744885065
93.8048553479797
93.6084506282947
93.347207385179
93.0318494867488
92.6406869557973
92.1707502249122
91.6163851438227
90.9502000485606
90.1249212185762
89.1538841380879
88.1123148979058
87.0402333097666
86.0427005561026
85.2231223994419
84.5362834395593
83.9491203362485
83.4646227369751
83.0510597083497
82.7172594266858
82.5240582049746
82.473173375185
82.5029549740903
82.5437570506152
82.5025476438944
82.3117045842016
81.9770078272252
81.5389735247057
81.0710762339061
80.6214858476804
80.2105851653458
79.8900032715208
79.6695139654562
79.5017757422544
79.4134248732125
79.3955824654434
79.4127155040961
79.4727623446461
79.5791198564624
79.7209135237685
79.9356861419005
80.2247643229044
80.6085382262569
81.0634832231731
81.5607788012172
82.0570638345008
82.541826150225
83.0353940001994
83.5276906288643
83.9900305726299
84.4151053379119
84.8247733391195
85.1984377526966
85.4854824542043
85.7079812597071
85.8946379817124
86.0038606155657
86.0415406293641
86.0576589014596
86.0915701708448
86.144821198006
86.2337894029514
86.3888138202474
86.6177597743026
86.9103702901767
87.2351535081802
87.6265220114802
88.0343565382069
88.1835577629271
87.6379728450583
86.3412369246027
84.864489841154
83.6061747843318
82.448676587524
81.574775235885
81.4022128201902
81.9956581274355
82.9803563521236
83.9521226436443
84.7631043255701
85.4313409254913
85.958237478352
86.3763341439171
86.7243388223786
87.0398998309454
87.3285059262754
87.572284620814
87.7700509100073
87.9211490155127
88.01056564823
88.0705843472241
88.1928632410016
88.3252423529593
88.3607627173241
88.2791334345942
88.0832192019718
87.7683223963996
87.3579749952928
86.9932584647765
86.8032077526086
86.7995447968555
86.9547971912124
87.1839225010292
87.4403201687223
87.7339687608205
88.0429054619535
88.3235548305372
88.5858807805359
88.8264568947519
89.0242718801855
89.2130949030233
89.3960740850844
89.5582903869465
89.7141125988968
89.8807568399886
90.0082530766008
90.0934421461622
90.1782748731116
90.2702268887561
90.3718820245523
90.4797818249409
90.600951400319
90.709419450359
90.8095736011634
90.9240206189242
91.043639345352
91.1550025290508
91.2236795314557
91.2764982611084
91.3507531717919
91.4386274410864
91.4218564980312
91.3354680445911
91.2320569298149
91.0897118034044
90.9434353223793
90.8379368294787
90.7627151041474
90.7250443034496
90.7247918469618
90.7969639192134
90.9451944909122
91.0288733950977
91.083597672512
91.1156297379872
90.986259282743
90.6988428134371
90.2838183789331
89.7257036430743
89.0134522477509
88.0134244764613
86.567155354196
85.1740759589855
84.9739355119579
85.8996651486521
86.9308431808472
87.6287217128134
88.1104053772292
88.3817737916602
88.4905815851395
88.54142157471
88.6010146092678
88.5737210015642
88.4048832716545
88.1383484335449
87.9035970251564
87.7959529400032
87.8048761204137
88.0098004607429
88.3031193178879
88.5849267475264
88.8816005930779
89.1045710863531
89.3476914982711
89.6360166225858
89.9108539479576
90.0801310873617
90.2442142032994
90.4880782731535
90.6588280755167
90.7764377675628
90.8789691210901
90.9587044662425
91.068527553845
91.1265280630301
91.2153215137203
91.3096843536273
91.297982760271
91.3468218960916
91.5096659532287
91.5756485458439
91.5982534374395
91.5236990445304
91.0323075831138
90.3922764032582
90.2605922965651
90.5005312138982
90.7902127190323
91.1652912001991
91.5474674030702
91.8192933479937
92.1054730746394
92.4459854704586
92.7121161825111
92.91156616239
93.0836811464774
93.3436527664356
93.6065439473102
93.8203899381444
94.101418092586
94.3271660986074
94.4985106871352
94.7201810689916
94.9821009569456
95.1387754556759
95.2786524112975
95.4796108047906
95.8048396762976
96.0740651518961
96.0238333780838
95.8452875933546
95.6346697917544
95.0943472321192
93.9057254988243
92.1088636377308
90.0368068165799
87.8117380299043
85.6724140232416
83.7531061685169
81.7471410574779
79.7351228040083
78.0219434222837
77.0743249702405
76.7359617441185
76.9211084385276
77.5749334899644
78.2562029157702
78.8753922658738
79.537867532127
80.0440450637142
80.5357172606536
81.0955958467654
81.6626308752241
82.1738229322226
82.4633782725883
82.8809654588282
83.5920702084251
84.2196727215109
84.8017010969593
85.041847441565
85.2994567196891
85.7719845502931
85.964524986563
86.1693697635295
86.4246196175956
86.5365265658271
86.5901270805501
86.8699756344325
87.0381694483474
87.2161562136622
87.4929085956498
87.3990265804174
87.8517575346521
88.1443232268283
88.2061780852314
88.3947339483768
88.5075453222064
88.7237606764196
88.7422103398034
89.0814855711159
89.433915984417
88.9936426208832
