1798
3999.43349933624
650.420452594757
1
128
4
96.8244200146972
96.7915836835065
96.7830865156673
96.7515103533409
96.7244188256222
96.7268882395779
96.8119851999213
96.8591754618659
96.7853425494407
96.7600867883269
96.7964551003761
96.7714437489884
96.8030324088497
96.775628307258
96.7951042680226
96.8488997996977
96.8505416065901
96.8572825217725
96.8571039224831
96.852101011475
96.787595854779
96.6520832661524
96.7173459589581
96.8202042881326
96.7637791416383
96.7113531177699
96.772246989138
96.8391925743086
96.853209241713
96.85282483078
96.8844580999339
96.915750539543
96.9636592214973
96.9313270038094
96.724723966472
96.5838905299101
96.7964260468719
96.9440684755908
96.8598038358525
96.7564803201673
96.7736446914696
96.7931678734257
96.6803703434328
96.664092535611
96.8407022457859
96.9593050142165
96.9494929376572
96.9034703831239
96.7862980501084
96.493659110001
96.2897873426678
96.3737066415307
96.6414977439254
97.0217117401747
97.288322648309
97.1648881637104
96.7930734598049
96.7228566422592
96.8723754281858
96.7240502425413
96.6188494912832
96.7833908937416
96.7240921206408
96.739599993877
97.0048805322325
96.9525213105504
96.7860887035047
96.5475280009631
96.4706931799612
96.7110471193519
97.0057230970708
96.9604297853265
96.9160592058375
97.022834212483
97.0375921441738
96.7983077058827
96.1999882921505
95.8557738337567
96.6035615893623
97.3912160769454
97.4639747557787
97.2043301275677
96.8711046384808
96.5302004339931
96.3303025456682
96.3286051188953
96.6500060846929
97.0530614709163
97.1480114248705
97.1574475466766
97.0511143343022
96.877460334144
96.8384799052976
96.6240775005304
96.2835555230874
96.5709701974208
96.8467526868792
96.8031254541597
97.0682218352078
97.3896738059345
97.2622956722252
96.9071978893969
96.6307654146271
96.5858378119797
96.4682133385425
96.4725434816293
96.8184984392135
97.0871316671608
97.1394200895532
97.1620625753918
97.1096612537064
96.9518610301092
96.7936131941016
96.7615370624545
96.8217596663124
96.8251138266837
96.7603282056241
96.7527747883911
96.8553850042437
97.0252081073392
96.9759655093671
96.7379476182972
96.6393435718624
96.6918480359398
96.8351249641372
96.9563595535614
96.9178061021442
96.7366013404939
96.746289190687
96.8920787714173
96.7741953945602
96.4995171191388
96.2362991128741
96.6523313111974
96.9711079251106
96.8844666410746
96.9937896760743
97.3625860707182
97.3912809330662
96.965097152245
96.6030649628709
96.4897706420083
96.7977386480353
97.1786207067818
97.2459590280912
97.0002404799951
96.8569230500859
96.8002803393826
96.6911694633432
96.7965843687089
97.0783677121106
97.0708870269248
96.8006955345355
96.468662897886
96.618499700613
97.0061624416483
97.2513365317826
97.2228499544462
97.0082719976772
96.9285567970914
96.9733051864912
96.9283923933313
96.9386134616731
96.8696120874608
96.5145604539936
96.2349140418933
96.5638898740762
97.0630491107388
97.2964022990375
97.1732640035503
97.0319173875488
96.6445312478617
96.1546703168452
96.1881301360559
96.7581334894328
96.867712661491
96.8684373027725
97.3322693089734
97.3563637213435
97.0504637542666
96.9113996953251
96.7853233347586
96.4539118331479
96.3630672345177
96.6084470498461
96.5228116062011
96.1256494378253
96.0826302227864
96.6839974377954
97.1682384548682
97.3106899249648
97.1055578222053
96.8336553880536
96.7097099085959
96.5868000410373
96.5485079934261
96.4600060475106
96.0616172616845
96.091174747402
96.7977487830158
97.0401423816453
96.8178447849853
96.5552281809936
96.4428162252274
96.6687187754731
96.7033775794506
96.5857096312113
96.6767338613301
96.7781703530272
96.7642306847419
96.8362922938513
96.8729522618279
96.8504180360093
96.7840111618373
96.6675241078935
96.5711843932829
96.6840564986906
96.9102578349216
96.8763455740691
96.6324552571685
96.5997437814876
96.8420808911888
96.9573967427702
96.8792572054805
97.0091172076531
97.0075079706977
96.7924600748552
96.7256119040826
96.7911556637943
96.7180612992999
96.4537316838748
96.339712868883
96.7668152858169
97.1151167140054
97.0668535074687
96.9713339689519
96.9578536926815
96.8067314902129
96.667786620955
96.7019423881954
96.8759619921742
96.7721698012859
96.6308140161411
96.8793701852302
97.0626364374065
96.9730074232583
96.887530663169
96.8139237976167
96.8336330680593
96.7640969268785
96.5695717312304
96.6039277713582
96.8094664436193
96.922649588533
96.9659136620323
96.9408785746506
96.9472619915906
96.993262686164
97.0139649448222
96.8880588857797
96.8682775030672
96.8165601754633
96.7730074226145
96.8989716013784
96.9907563144763
96.9947278355727
97.0567464783444
97.0613527639997
97.0372517825953
97.0169804462566
97.0260788459842
97.0715580071241
97.0682357383944
96.955644431386
96.8854881546683
97.0064209644234
97.182778960257
97.1816330542016
97.1324991225778
97.0749013922872
97.1692639326882
97.1667601526082
96.9474042945065
96.8829085084373
97.0090889588188
97.0379697300365
97.1040731394315
97.0722888298587
97.0341698213018
97.089798017609
97.1088422111096
97.009566389327
96.8990173595152
96.9157348150229
96.8555692127996
96.8102315513069
96.8686560486479
96.7837091392885
96.6921339892198
96.6691640821718
96.6516052837602
96.6254721234848
96.5766075075882
96.5269587088502
96.4977493154567
96.4964139506719
96.537637481868
96.5030429385855
96.4731320589551
96.4380177543633
96.4409566662757
96.4740463739874
96.5253082907764
96.6887209939719
96.8143166429957
96.7948366881469
96.8063021806831
96.8269039665621
96.7475566205934
96.6664006156801
96.7589964530176
96.8790431649084
96.9704363559738
96.8719751295767
96.8476974057178
97.0135420334585
97.107023862124
97.1071436292781
97.1234578989648
96.9443816238627
96.8596558719463
97.0204815791562
97.0493171591677
96.9300972482216
96.9167343950348
96.9816706243472
96.996531666964
96.9377191493885
96.9435358249574
97.0856651168755
97.164828147222
97.06539183534
96.9856632084546
96.9517263346384
96.9792081778719
97.0531449083008
97.1069587385726
97.034065320622
96.9471129720217
96.9257820811655
96.9266615654513
96.9537922488861
97.0143268995583
96.9785597613772
96.8845171122202
96.8747619314797
96.919068094137
96.8539262798478
96.8322239190777
96.8547025460715
96.8873534851285
96.8900967200552
96.9162980176694
96.946175405377
96.8760151040662
96.9011396623039
96.9783188616863
96.9211898810132
96.932880275567
96.9949494354195
96.9862762333551
96.9126899043724
96.8879428703031
96.9294769463616
96.9599051488655
96.9485706480072
96.9504973460426
96.9085968165915
96.8390960774194
96.8015914910835
96.8660919994979
96.9686269232001
97.0744446709087
97.1073261406329
97.0148632598767
96.9753390011089
96.9819449665177
96.9786788700772
96.9688294596178
96.915883217346
96.965204771232
97.0162989111833
96.9591891266073
96.8779756107724
96.9054477789837
96.9791627233636
96.9381266808201
96.8506645459622
96.881065202689
96.9646476249184
97.0063097650803
96.9994294723339
96.9573769074465
96.938399738961
96.9492579544575
96.922366621918
96.9166490742459
96.9548903681215
96.9978265281712
97.0164322898822
96.9680537197418
96.9923599469295
97.0270406611125
96.9909021510161
97.0181887310635
96.9994518277194
96.9342917305474
96.9721391776605
97.0648787670737
97.0272901912996
96.8831566251192
96.8380352513442
96.9872948328801
97.0677971763091
97.0142283513279
96.9666453072964
96.9749543685656
97.012740560108
96.9756892246737
96.9493296331519
97.0265119820086
97.0096882716059
96.9918141058022
97.0772828468614
97.0531231631448
96.9634388372506
96.9815256987945
96.9889111505459
96.9179139314977
96.8576635597051
96.8695118137019
96.9312769722996
96.9947396238848
96.9504869144828
96.9322741743335
97.0160797533018
97.1050231146653
97.10717176099
97.0424564361993
97.0049809558687
97.0550053820857
97.0993412325852
97.0782163059046
97.0018722270431
96.9572104572554
96.9660520687584
96.9967091233688
97.0334302856948
97.0294782944189
96.9678621866372
96.9151556233367
96.91324790769
96.9540231668886
96.940058300975
96.8664146852463
96.804060909935
96.8263162815157
96.850157746134
96.8310789552828
96.8203877435872
96.8816702539398
96.93622236146
96.8861437021268
96.7933241209285
96.7276668621222
96.7549845730022
96.7699431575679
96.6738746466269
96.6452264472739
96.6480214813463
96.6186153687523
96.6331383946681
96.6326452120733
96.6145131690509
96.6336233923665
96.6648142399624
96.696386217662
96.6773552532338
96.666156437734
96.6538872649761
96.5796205588989
96.507222466418
96.5179786765613
96.5742113457174
96.5297495185032
96.477372604541
96.4816344700519
96.4644038275804
96.4675990831433
96.4547466189962
96.4842424504585
96.4899633209896
96.449744329779
96.4457458852301
96.4741004436603
96.4926971370396
96.4756347473001
96.4298185910044
96.383199107288
96.3735880312079
96.4613059601989
96.5923928206654
96.6505825868705
96.6708678706846
96.7140867377526
96.7501836688426
96.8118428231086
96.8230281025025
96.7998535624607
96.7891818362922
96.7632258007092
96.7308302245912
96.713402041552
96.7262908208036
96.7226028022131
96.6506826330086
96.5723179933703
96.4849922129295
96.3516422966555
96.2830923820972
96.3223193128184
96.2799389072447
96.1579280693368
96.0436006577943
96.0343576697411
96.0782021635474
96.0420670923207
95.9577678469092
95.8896814146378
95.8749126349959
95.8857760483879
95.8408577533994
95.7564423420588
95.6840148884541
95.6160022382063
95.5189693359355
95.3986488653164
95.2422323823754
95.0660081311402
94.9408391324182
94.7966053971598
94.6091421821061
94.4588306702149
94.3530720881997
94.293873854413
94.2434071807336
94.2590400319681
94.3090546450238
94.369588096215
94.4791345840492
94.6281601131846
94.7798104899908
94.8795108401553
94.969568660323
95.155357642031
95.35029960623
95.493324696279
95.6430409759101
95.7760471155021
95.8139352144444
95.8535810218551
95.9545796212211
96.0358748493482
96.1077295902505
96.1921307055065
96.2050314083572
96.1861461882519
96.2138919258146
96.1926742525872
96.1336866435643
96.0866592860136
96.022527279672
95.949125184789
95.8521933141961
95.7655280843248
95.7012652661743
95.6274925083223
95.561244525889
95.594063762133
95.6847627388932
95.7586588922396
95.8289310700147
95.886255558698
95.9138013093099
95.9422047238756
95.9756444287
95.9940890594264
96.0309982488305
96.0764316192807
96.0551340810695
96.0391481246416
96.0745970843045
96.1346812519939
96.1688207536786
96.1710485844539
96.2024027189483
96.2352860995139
96.2236146287882
96.2329589370682
96.2643396862626
96.3045322004253
96.3097997748846
96.3065165864171
96.3280291370088
96.3360105453029
96.3291292090945
96.3659099847171
96.4190350212958
96.4801522893586
96.5595357450901
96.5964124860774
96.5856193846111
96.6010999689382
96.6283008770994
96.6165447764314
96.6681809719551
96.7877522130714
96.8124730961615
96.7653331764863
96.7413893155815
96.781000283022
96.8519694299095
96.8564625258199
96.8257069606909
96.8104352474516
96.7811941454795
96.7838707297942
96.7758629720871
96.748396654887
96.7611504899723
96.7769574924447
96.7749955975855
96.7981650975297
96.8111789833369
96.8069518424997
96.8124073936705
96.825781097068
96.8524340177568
96.8698100072564
96.8543042198479
96.8502427918919
96.8665424187763
96.8873088838618
96.9008177806755
96.9234927029176
96.9643451223225
96.9892592219762
96.9621551517023
96.925454361588
96.9297631273496
96.9344490850094
96.9207229005277
96.9398486387886
96.9735858763252
96.9854893025607
96.9730552271332
96.9941605425574
97.0215648127488
96.998935587034
96.9556587020477
96.9382783477309
96.9726419516154
97.00684627929
96.992712901124
96.9774131119694
96.9860696273796
97.0041692506815
97.0054106347275
97.0026654283831
96.9918460209193
96.9944602746481
97.0065226216668
97.0144607419062
97.0455834573053
97.0568332133096
97.054960305031
97.0915694841757
97.1034785674237
97.0759080209352
97.079204079288
97.1057338487169
97.0932195245917
97.0736621313135
97.091702902239
97.1295818813002
97.1309600814392
97.1020497633142
97.1044206933102
97.1171244132832
97.1084876652953
97.1586222988551
97.1962981965719
97.1720432207055
97.201080361059
97.2290642094562
97.1943623065136
97.1708010330648
97.1535398423308
97.1666518307308
97.2034951721788
97.1997833451414
97.1708529113333
97.155333178063
97.1636784577563
97.1825470628286
97.1696758395564
97.1318520402113
97.0819852197863
97.0526983122805
97.0979915537649
97.1254394918874
97.0612394550709
97.0242412455095
97.0567441870078
97.084092365758
97.0526789580878
97.0303362312927
97.0673670296565
97.0839823761095
97.0684867326666
97.0666377802617
97.0648151415952
97.0613228923408
97.0355794230282
97.0457499372029
97.0952454548874
97.1264325163229
97.1220384322997
97.0963205599351
97.1134523655296
97.1217806752865
97.0865009541259
97.1086613193656
97.1507538958627
97.1600024029241
97.1401896062235
97.1533719340451
97.1946800109426
97.2325964925652
97.240115130042
97.2439414416294
97.2716372187762
97.2947961355776
97.2577292592896
97.2223819505586
97.2524263452169
97.2593778951096
97.2313341401632
97.216032740913
97.2186187406003
97.2418707871363
97.2407946225407
97.2474966631516
97.2601935954086
97.2319738926601
97.2693044098879
97.3337331181433
97.3324208356897
97.3251285371339
97.3049388443138
97.3563826140494
97.4224841405498
97.4368252969896
97.4157645782501
97.3162446571686
97.2374337310651
97.2786447252921
97.3573475044147
97.4311317957985
97.4251267558424
97.3873594751382
97.3787768357515
97.37453905454
97.3633301213784
97.3214911161224
97.3611453931037
97.4345857056683
97.4638127745115
97.4512565309081
97.3686839124213
97.3039567537881
97.3310612030194
97.3976871406715
97.427024459098
97.427879918437
97.3742372522538
97.3521959865436
97.4249607493307
97.4574379237409
97.412298672543
97.4482551416745
97.5168102889658
97.4820737129504
97.4624609841053
97.5087092477095
97.5272272709069
97.475449455507
97.4541498233749
97.4562580080557
97.439604949322
97.5077296446112
97.5696987796309
97.5994673282364
97.6307209745229
97.6064943933547
97.5526589311633
97.4909688320006
97.5020027292923
97.5932825671829
97.6442596471531
97.6468087464022
97.6117319504886
97.5467016017508
97.5338664138008
97.5426366073021
97.5710374714309
97.6268724281902
97.5920567125855
97.490377709722
97.4469010804825
97.4942601137013
97.5739185016611
97.6707552725406
97.6591084029862
97.5247483159226
97.5261734150589
97.6392138187453
97.67083368741
97.6136835686228
97.5666986931397
97.6003153743799
97.6314892707538
97.6303745518763
97.587973085256
97.5743945281825
97.5753125811873
97.5686899870122
97.5664801000765
97.5453967421285
97.607138898539
97.6288945191205
97.551010992507
97.48511756288
97.460127082514
97.4732233602726
97.4467413790784
97.4429448429446
97.5089195618932
97.5075712032294
97.4989621454418
97.5426435846601
97.4827194247091
97.4286870710251
97.4565997683029
97.4752015935055
97.4962661972309
97.4568331136635
97.393755036719
97.3605771554903
97.3803824563676
97.3885751767223
97.3706556106999
97.4125491071498
97.4507234103325
97.4366127716179
97.4345140613219
97.5480941654334
97.5368593775151
97.5310061255924
97.6043715624747
97.6117372273884
97.6589330622497
97.7159274297582
97.7553859808894
97.7487216568552
97.6189937514138
97.4338967057868
97.3105820544798
97.2472321811963
97.2856093806691
97.3877913427318
97.4863464554214
97.5990480605984
97.6139849758862
97.5140716928991
97.5188644850166
97.6623810395765
97.6603163272295
97.4650314031476
97.2500461400741
97.2148963117059
97.2928747577002
97.3692839105106
97.4508623249386
97.5453563976927
97.575974179671
97.5580314308315
97.5443875961498
97.5858941757738
97.5980366183375
97.4988788934047
97.4876114460306
97.5989151865389
97.5949432283588
97.5324099847985
97.5483978153957
97.6099065557336
97.5936933350547
97.4939759126137
97.4816940012345
97.5075999473087
97.544099670468
97.612738240195
97.6290442034087
97.7301372907807
97.8413221840478
97.8573673038934
97.8619204237507
97.9040393794872
97.9510416617816
97.9769752181886
98.0249616665537
98.0605107961277
98.0765204463025
98.0110699990723
97.9724627575692
98.0840031099564
98.1478733664818
98.1175937463034
98.2558586517181
98.2244327375128
98.0923360204347
98.1654423423898
98.0941744267693
98.0740967549891
98.287216904396
98.3547469765249
98.3169572437837
98.3457160791716
98.238149849293
98.2294857246493
98.344217812733
98.4042299461112
98.4766484590651
98.3937495387608
98.3868526717406
98.4899270025196
98.5898192512135
98.6229748779773
98.4160916226604
98.2234986415231
98.3901413917974
98.5587237648333
98.6789615776979
98.8245581368874
98.9104810599777
98.9055944700347
98.8348167141264
98.8768588392334
98.8189088115669
98.8351855921611
98.855765986029
98.7673389096409
98.7226344706886
98.8488178481771
98.9864084367251
99.0227579929316
99.1426528383612
99.0993291845973
98.9578304564426
99.1029227464713
99.2226728463015
99.0666040220641
98.8189191120596
98.8507860076569
98.8948959714688
98.8227976196305
99.0713058629861
99.4146230639764
99.4826678231566
99.3891560676235
99.228025466994
99.1170891771655
99.1136482688539
99.0096018922306
98.8117413880988
98.8430346939672
98.9946920527817
98.866208431515
98.5820667376575
98.5507153377797
98.6590829552971
98.651599236682
98.5252308209709
98.5456773281997
98.6891170443672
98.5371743414114
98.2718677756811
98.2108063779744
98.2102823853044
98.1638829486947
98.026869353128
97.975288478799
98.0188060998522
97.997344095597
98.0780312273302
98.1741925678147
98.1841185185709
98.1565442284563
98.1195938797701
98.1876635460389
98.3116635189109
98.3842145649018
98.3135091281308
98.199814672253
98.2531785906296
98.3207847326472
98.3196825697939
98.4163140005993
98.4908118875055
98.3800568102436
98.3583759629385
98.3608333380438
98.2889636349568
98.4263751278838
98.5667063460281
98.5574165895441
98.4539071864752
98.4398793143036
98.6027914697922
98.7199615286389
98.7074131265142
98.7735904754622
98.9519706938912
98.995534869944
99.0074210773761
99.1371027506302
99.2385547177703
99.0961069282148
99.120116395492
99.5152739752928
99.4112589430253
99.0259319325881
99.3680451636931
99.7882081674066
99.7867427176341
99.5817344526988
99.356588938765
99.2839220640787
99.2017284176888
99.2661064394909
99.4844417317733
99.4997051577143
99.4195519980707
99.2564110186639
99.278323602879
99.1798857870652
99.1843227302127
99.4137314618855
99.509448333119
99.4093514211
99.337025634983
99.2016613115988
99.0710856335716
99.1878059215144
99.2160340438798
98.979078409684
98.7701889683428
98.7606339247898
98.9271136881035
99.1219242937104
99.0912771317458
98.9413133312925
99.0713365522171
99.1912850426823
99.0943760686682
99.0957572361889
99.5166329669615
99.7297973652902
99.5556472611135
99.2420687652913
99.0143978638524
98.9892290636569
98.7701575708364
98.6863648224777
98.7373335048942
98.6277419800893
98.5934425263247
98.688061690905
98.7566155003508
98.6160631470995
98.4309135725807
98.3943972350659
98.4647104829915
98.5727508809728
98.5997606695934
98.5338685425419
98.5067116906745
98.491626223794
98.5149726624967
98.592206087951
98.6784766188741
98.6870144174767
98.7585112876013
98.8038208373767
98.7038758929298
98.554593622229
98.5799920664995
98.7994918807105
98.9078056702824
98.8324307086216
98.7620113229275
98.7745059993872
98.8203266917546
98.8644949058305
98.8794738296484
98.8440125453699
98.7808068984553
98.7907424828396
98.9497435131306
99.0100037016312
98.9746670823603
98.9152275328067
98.8779542093507
98.8129623510987
98.8729184627688
98.9347642519421
98.92884431617
98.8579349256977
98.8824286173746
98.9874798900799
99.0187254269091
98.942673803118
98.9336244674941
98.9160242769611
98.8875483628249
98.9301917505369
98.894075299377
98.8157956062157
98.805975865474
98.8353301020208
98.8121024377191
98.7637122913046
98.7360668312309
98.677641118022
98.6694021924679
98.6358533031446
98.6538454512959
98.6078508928435
98.5495823081301
98.4955494067379
98.4880486631983
98.4398354918825
98.3224265127867
98.2243316394537
98.3113218814322
98.2842440386924
98.3194553375474
98.3145121544053
98.313238756045
98.3273867642855
98.3203359785203
98.2972266464168
98.2721555436803
98.2470548481982
98.274722497764
98.2665144380728
98.2334330124029
98.1604513406577
98.1222620456413
98.1853843628528
98.2603363009996
98.2342558116638
98.1854564817467
98.0836814685295
98.2187786567729
98.2430093425591
98.1889123402535
98.1891013207095
98.239149577806
98.1595696980841
98.1442619437569
98.1424420329475
98.1326500449521
98.093692150814
98.0378609585327
98.0805288140944
98.0168924886548
98.0029238644067
97.9171827475856
97.7736800370125
97.7223770020596
97.6345961264165
97.4159002626457
97.2889254405384
97.1030527825711
96.7979894961518
96.3871744728291
95.6334344521699
94.6829540617141
93.435808737774
92.0432377619317
90.4204069497223
88.4661536271506
87.0219414117906
85.6700977992222
84.0228886826058
82.3744291344885
80.553249254869
78.8352227355989
77.3235871975849
75.7348750492454
74.1680480103515
72.9139153586097
71.968966088697
71.2358071545886
70.1540577997619
69.1369852033081
68.4812969383528
68.2455220179631
68.5523039392904
69.7078885314126
70.4996494862128
70.8796513912996
73.6178438265721
75.2729322339048
76.7664293295321
78.846712900149
79.2779204281436
79.613052084013
80.2738273446181
80.0646485898773
80.3299746200033
83.2085084879756
83.9938576169413
83.9552089478998
83.6061273633978
84.1664433317931
85.5157253117943
85.4920605035448
85.9747811381139
87.6519295726229
88.0599145941873
87.642509171245
88.3557335991622
89.4909071215761
89.7088267301693
89.1567047326331
87.5999099793037
89.296772566082
92.2548202389546
91.6419666533996
90.720552540065
91.8777743344294
92.5715403206849
92.29427867889
91.9119710816
91.3542152200496
91.3614696165542
93.1347530184455
93.6826410177939
93.2373537299574
92.9074199802781
93.1552836635148
93.2501288772955
93.5054464520403
93.993398722785
93.6895443416872
93.1574145984083
93.6384157489202
93.9137254055644
93.5917430534081
93.4676577285643
93.70445534333
94.082176838567
94.2779993331987
94.4915021100486
94.7263159694985
94.9494812526743
95.0908765372946
95.2406484782261
95.3713266819059
95.4408329001095
95.447337674212
95.4477426080449
95.3192820631024
95.0428138399605
94.5369690641474
93.9236977225305
93.0992380238307
92.9165850490575
94.1136164315522
94.5374298472518
94.3503284418917
94.8664955699625
95.5385950466924
95.643601882113
95.7053220907612
95.2533540392478
94.4536885985436
96.0256372566003
96.8265508669861
96.6759588879348
96.5388787336075
96.3280197512249
96.473813525363
96.3955828780507
96.2319284110912
96.2230294938029
96.239145764929
96.9044245330685
97.3073202430992
96.9689407374465
96.6119476061281
96.8250122378591
96.7762632360542
96.4984024877341
96.3700753462761
96.4280085700443
96.2843575727994
96.6283316200859
96.8835909056852
96.8349577128206
96.9967587085453
96.885579838733
96.4310832824667
95.5745030479494
94.2427639742576
93.2680635718026
93.1407944858901
93.3630700905119
94.0054664387505
94.9507107487424
96.0555865162203
96.8151968702692
96.95315686411
96.8030395057273
96.8720250484122
96.9676606999919
96.8251575982884
96.4283028938606
96.0185340777888
95.6817230585156
95.20173684334
94.6524869779741
94.0794840583436
93.7644346016625
93.9163473235307
93.9233711689759
93.9362273459672
94.1427565893575
94.373739038259
94.0194926676237
93.435189144018
93.302290286519
93.8557718724647
93.7458012191418
93.5484971376992
93.4626482003695
93.6055977751595
93.9462976697629
94.0615745483877
94.1006043637669
94.1411887528203
94.0260106680402
94.2475038667962
94.9932746313215
95.2991457242133
95.5459395524201
95.9425878073999
96.3186422551892
96.4581018157956
96.5146858100792
96.4978825347387
96.2370220729172
95.5973109072739
94.2105712460285
92.0276130806642
89.3227551571057
86.7193355134946
85.1132945959351
84.7213871614609
85.808622746782
87.7031537398898
89.058220156446
90.1563179809601
91.4124493878433
92.2367120095138
93.019091761962
93.4894626441157
93.5256744606886
93.4873592554884
93.6868962042751
93.8333621518852
93.7967565613781
93.7887447615811
93.7668095102078
93.6873360122645
93.4841668104309
93.3713990791455
93.252856155787
93.103541370996
93.2696176928002
93.638135925288
93.993130990279
94.534808044894
95.020054351252
95.2352256867337
95.279901898404
95.2349759309009
95.0341679302578
94.5457581391973
93.6324638188119
92.1456345694905
89.9854385403877
87.4244835073632
85.0765851452307
83.7029375387443
83.9187810464298
85.3623579906654
87.5031075236209
89.8455509566132
91.8846091292765
93.2922502981026
94.1183310359448
94.5134580890486
94.6126367568982
94.5344523575111
94.3638127034367
94.1462724514889
93.8590774510325
93.500970310543
93.1376633459822
92.7280617517869
92.2674564578052
91.8418891540076
91.4583576604501
91.0452296787286
90.5067506918011
89.8251990590407
89.0212461445219
88.1310389461122
87.2171120273703
86.3577436682916
85.5411088415773
84.7192089768516
83.9179816837431
83.1329405691816
82.3525851955818
81.5850684666637
80.856068655918
80.1425879382232
79.425589579333
78.6742841416743
77.8947074853249
77.0826487257466
76.2173474024849
75.3391842057594
74.5247209737603
73.8021991857955
73.2038166357742
72.7377000923568
72.3550224782269
71.9738139737921
71.5686259696343
71.1396153723944
70.6761151092371
70.1802527008408
69.7155749388709
69.31499930686
69.0043643198366
68.8214622664238
68.7859309648495
68.8837932361413
69.1608345092663
69.5906226826891
70.1167609097009
70.6692470369845
71.2227058617959
71.7651413013851
72.3289479070921
72.9546722014399
73.6818466222097
74.5079554412102
75.3876120314596
76.2515430662123
77.1151955382062
77.9722995300673
78.8001928072002
79.6062993425109
80.4116761601087
81.2189053338806
82.0329802587458
82.8452460190888
83.6538309622581
84.4661117890814
85.2312659250607
85.9328914644736
86.574255591818
87.1321782044233
87.5864125964955
87.8857114714825
88.0293993646514
88.0450999800255
87.9798328572927
87.9295472387412
88.010968442942
88.3174499864357
88.8841955349313
89.6097502724974
90.3229725198431
90.8961724081937
91.2597169399968
91.4633498152544
91.5927299101603
91.6427779824107
91.565364935915
91.3496601252526
91.0179814817769
90.6043971290478
90.1209094548306
89.5417303409094
88.8423141442303
88.017615204433
87.0406745883535
85.8812137070408
84.5341395984209
83.0442771052322
81.4828035703101
79.9963443116951
78.7203717557977
77.6367088890527
76.6943715073725
75.8791196774451
75.1817552560703
74.6209710815488
74.2567049996695
74.1332290814311
74.1999041948907
74.2889509955913
74.2818810836082
74.0861868577342
73.6318672309038
72.9907992209453
72.2796807592151
71.6013023026602
70.9934788793385
70.4809303538873
70.1242334323665
69.9080234023528
69.789376793747
69.7390038562832
69.7602501270465
69.8485272359013
69.9994771309997
70.2054372748897
70.5032984461572
70.9366048486681
71.516853870583
72.1927335088109
72.9647687819208
73.7738390220494
74.5467443219876
75.293755197958
76.0270386519066
76.756146986882
77.4479614238223
78.0883435979932
78.6668392489458
79.1353997911149
79.4976674642389
79.7479843140754
79.8839221203332
79.9564448701852
79.9715971986325
79.9554478477255
79.9943653617155
80.1111891216872
80.3262810259187
80.6413639044596
81.0804204624689
81.6142592749121
82.2266085798833
82.9146484188603
83.3131571552096
82.7167888825772
80.9068945444661
78.6670571663149
76.6316385653102
74.6965781400148
73.1598519860185
72.6891125762602
73.5042707468839
75.0559345667202
76.6126199025151
77.9095715051166
78.9738579380513
79.8408373812588
80.5600350751369
81.1529596490913
81.6657840780946
82.1002930888622
82.4739309969326
82.7834307335093
83.0035436981574
83.1389949468278
83.2382070628359
83.3888069038412
83.5386618664537
83.5780944084179
83.4726509026468
83.2038878154768
82.7398489501237
82.1355304616465
81.5775051412473
81.2347503352426
81.1799922694448
81.3972956444987
81.7643485131079
82.1862850489117
82.6663955359344
83.142386921057
83.5557254845171
83.9771450361711
84.3937580660249
84.7319693788958
85.0380233277062
85.3423600685954
85.5945047977889
85.8053531275341
86.0424832592266
86.2579138604787
86.3957122793362
86.5507007938046
86.728964259014
86.8833964220056
87.0295610850968
87.2007907645867
87.3865233836857
87.5629739868153
87.7387693707414
87.9156910973192
88.0726961920856
88.1745012425907
88.2445059984328
88.314151725521
88.3752411231654
88.361239613423
88.2966095848062
88.1555799856888
87.9082812846112
87.6706980773866
87.475722737601
87.2909691113747
87.1660905867063
87.1673172176153
87.2801890260752
87.4571248938936
87.6243376978905
87.7310033827618
87.7176922220481
87.5390019656361
87.1556955556928
86.5098836519764
85.6196610518577
84.4954545093062
82.9979983336383
80.8528802480515
78.6949228023409
78.3101215955068
79.7088633961596
81.3192660553878
82.4898289901378
83.2748489081327
83.7977218831266
84.0698533194888
84.1822975835467
84.2544369071795
84.1952601916991
83.9798732852099
83.6111603630775
83.2502986494919
83.0563701940716
83.0984453473525
83.3992639671673
83.8176586865907
84.2309530228517
84.6480091783233
85.0436473561735
85.4906767410062
85.9592726161801
86.3406094696369
86.6635416700776
86.9484593165199
87.2020544302127
87.4428242421545
87.6646651747112
87.8197196739146
87.9172548969735
88.0140573400244
88.1410775779312
88.2849835334095
88.4239796030496
88.4799438273618
88.5072180048223
88.6583162888377
88.8370696125813
88.9822844077086
88.8874700095513
88.179304194561
87.2288977271496
86.7950035416643
87.0048146389593
87.525289702835
88.1749477293036
88.7739065038434
89.226983551114
89.6069099205065
89.9565943532813
90.3150701082934
90.6788082543404
91.035939630675
91.3984115357265
91.7097707199993
92.0221009950716
92.4530030244552
92.8197277295369
93.0588982098623
93.2405416732577
93.4728927887381
93.6934491986769
94.0045604071965
94.3632652669596
94.6251132243301
94.7899800586622
94.8451357159335
94.7027134314306
94.2491018967671
93.235123470869
91.5485359604619
89.0674353328964
86.045210332635
82.9593381789447
79.9841921861362
77.1066878301183
74.3013885002416
71.6918831320643
69.4476320012159
68.0683047285711
67.6417405274188
68.00138175681
68.6931162954119
69.6113283030042
70.5071537439406
71.3448744614005
72.0794219065431
72.7548644283239
73.5610468328395
74.4125144942666
75.2690088126832
76.0069597757354
76.7341250584989
77.7391587221504
78.8092623665023
79.5028478052448
79.9202512544408
80.5976431910884
81.2100508712249
81.5013755580267
81.6618274339354
81.9856943273358
82.1863297745033
82.3271782302093
82.4810371524569
83.0046751702184
83.4077328966416
83.5285522399236
83.3438117682064
84.1838642522464
84.743802851041
85.1012585436088
85.2927248662927
85.1982139109777
85.3279593565365
85.675107969118
86.3520170752972
86.7594098999752
86.8082897589114
