1798
3999.43349933624
650.420452594757
1
128
4
97.6717749910678
97.6768249626976
97.6803731222886
97.6459303766108
97.6348244060884
97.631666588822
97.6269188038536
97.6354040720007
97.6053413320769
97.6165864818252
97.6238718576684
97.5831902122764
97.6646453161448
97.6827360880761
97.6684966555225
97.6776495703905
97.6799386400187
97.7228535592804
97.7111892814352
97.6928185892941
97.6754584312598
97.546132883121
97.5513655312775
97.5918700517905
97.5793079991958
97.5639745756892
97.6467208176997
97.6435899066456
97.539539818833
97.5786610566793
97.7428934403331
97.782085310476
97.7227911729158
97.6984363857004
97.609788236036
97.5426408852376
97.627701735007
97.6008390352677
97.5586525761681
97.5405818336284
97.5905981130247
97.6238762620142
97.5704003387423
97.6000598829843
97.6409487413123
97.6920726108398
97.7363415077649
97.6773272156583
97.6329167775747
97.5202137684238
97.4041491724194
97.4487719356951
97.5716016400016
97.715478876667
97.8351088786116
97.8285254984139
97.648382303577
97.5554246748583
97.6391605408149
97.5996928086248
97.5230378935689
97.5818618783681
97.6272809200867
97.6498613125657
97.7199963369298
97.657072227806
97.588824791255
97.468226579387
97.4372783882681
97.4741304907477
97.6160280410675
97.6673260578101
97.697532628986
97.6880094895871
97.6705911264603
97.6208546549521
97.394495254607
97.2452442049698
97.462104074529
97.8003400831328
97.8762331085562
97.8194024119088
97.6877754069774
97.5420479354677
97.4532750094883
97.4228841286312
97.525231139113
97.6615504377787
97.6686995757938
97.7399311177897
97.6971405310569
97.6349282531471
97.6908652135238
97.5125101154273
97.3113137071555
97.4796910718502
97.5732420861677
97.5972809548823
97.6976651333373
97.8392418087651
97.8061679152942
97.676697426575
97.5273875249789
97.3950228692746
97.3308495752152
97.4487668103963
97.572426509694
97.6152803301777
97.6058107010618
97.6447739933664
97.6795506288726
97.6544887605685
97.588950384132
97.5748987217615
97.5851633762637
97.5593572576005
97.5390951083514
97.5453001868909
97.6045097276831
97.7374753627947
97.6928211461057
97.5637435865157
97.5188856456626
97.4882033558204
97.5411705036709
97.5792939973699
97.5307392068673
97.5063247021912
97.5490265811062
97.595163992219
97.5106804587198
97.4140853771865
97.2955180988116
97.4433325808962
97.3887281657226
97.4068549508471
97.6659825385898
97.8049810565958
97.7506556271786
97.6380322151556
97.6563336650417
97.5245215929457
97.5209076149844
97.6310624674199
97.7172817482211
97.6210670260349
97.5475200716174
97.5512266491395
97.5458959239206
97.6099935902354
97.746841919769
97.6729692540473
97.4631476955297
97.3370269265797
97.4238388753785
97.5950772463558
97.7311689076611
97.7655779871091
97.7258472125142
97.6636353973292
97.6269319287134
97.619706453412
97.5986759844299
97.5228566952456
97.4331793054843
97.3363189027937
97.4309849551564
97.6262971481139
97.7678513426058
97.6945927210806
97.6876567693599
97.4813082389202
97.2637251503199
97.2185733381715
97.4053652911324
97.5120667127754
97.5148099622344
97.7422882205814
97.8335570835056
97.7310098118394
97.598601142932
97.509875718188
97.3880686029842
97.2949109947805
97.3472408003609
97.3699944060123
97.1423093087141
96.9639713184684
97.2587210396391
97.5567471769457
97.7773077356254
97.7182006349345
97.5728748664354
97.5116641366608
97.383106051496
97.3736680433431
97.3793729148751
97.2512591726755
97.2346343898557
97.4916590232681
97.6807492704596
97.6618149002891
97.5165065382608
97.3737251065195
97.3683565058842
97.3290313628806
97.3011415123636
97.3485051428486
97.3894073253367
97.4050566847433
97.4837433677432
97.4996478369991
97.5483500603145
97.5484538205546
97.3774462737568
97.2273931953918
97.4316134505799
97.7347898546129
97.704080810474
97.4974630139486
97.4022631223091
97.4520444337047
97.4694522146116
97.498040079519
97.6738072699507
97.6549166498631
97.500669145908
97.4587091271403
97.4992874571059
97.5152768739042
97.4089517411176
97.2122392049011
97.2836815080887
97.5138385121579
97.6440014476736
97.599646741241
97.5888969098789
97.4963926592697
97.4462653879126
97.5071051983194
97.5608036826047
97.4544374292485
97.4074972984794
97.583303585349
97.6632853473014
97.6094124287985
97.6487742277649
97.6735010363518
97.6122992367105
97.541533488005
97.4939885603037
97.5138923042314
97.5856399478615
97.5324554994033
97.4777884381672
97.5061817410023
97.6058106110258
97.6715284562027
97.6882227065918
97.5955705209118
97.5434001174862
97.5597226003044
97.6122773982822
97.6618368030611
97.648905397242
97.6363422963031
97.6625275311703
97.6694540609925
97.6664969336122
97.6384936945396
97.5771483620877
97.529141326176
97.5624008914672
97.4976786365461
97.4552009324582
97.6112729298929
97.8188615502642
97.8040512666784
97.6500970603204
97.6511082843756
97.8069416833425
97.6982293842275
97.5311939524996
97.5329162684593
97.5147554782452
97.5172928778064
97.6526842967857
97.6567165357393
97.573722575479
97.6203602823087
97.6685801356769
97.5348443661517
97.4400246040947
97.5367751087268
97.5506240176146
97.4328342071506
97.4101263337735
97.354295645194
97.2609946380771
97.2284924018452
97.2485652256843
97.3430581240592
97.4149090063956
97.3943604086818
97.286575510428
97.2433283616764
97.2976586457459
97.2835589656926
97.3050879650639
97.3163568999415
97.3569427360601
97.4006316783457
97.3980993465261
97.4054218266306
97.50021966718
97.4635265199009
97.3929684665248
97.3836135513269
97.3770964618282
97.3734104130132
97.4163486472674
97.5002260854893
97.5225597966723
97.4616913545427
97.4889503666073
97.5164930150926
97.5708628865226
97.6197283516933
97.5977821507069
97.5152000190651
97.5412476960192
97.5576435124391
97.4825476346226
97.4996614375584
97.581501218346
97.5857754206212
97.5640374522782
97.5604673154629
97.5802463638789
97.5830204055801
97.5884452765337
97.5566759089577
97.4962960627064
97.4872531682451
97.5417701610319
97.560036098201
97.5772865105354
97.5083072141948
97.4937378742262
97.6015000672067
97.6238268133926
97.6312442169243
97.6828691068834
97.5905479141987
97.4781402185425
97.5595743831802
97.6343152079741
97.4938779503106
97.4250449216524
97.4325969597239
97.4299238055955
97.4668409988894
97.5376651975345
97.5000991004481
97.4086531222528
97.4643982859211
97.6075892036311
97.6583240204547
97.6069143690031
97.4942936766885
97.4590525627658
97.485984707354
97.48326511858
97.4597424046968
97.4973499767733
97.5302583651818
97.5278970559679
97.555059304025
97.5778911477249
97.5402564736402
97.5320266704767
97.5103045456197
97.5255369654823
97.5976068858159
97.5577692081772
97.4709971552331
97.4778667363029
97.550317461628
97.5752595201334
97.5151205760712
97.4998919524923
97.4722268311862
97.4609171071088
97.4912641171352
97.5089170127751
97.489885466652
97.4719991195556
97.5045884234765
97.5375605022937
97.5514159598914
97.5951200892742
97.6087436870231
97.547365868077
97.4650899948227
97.465222796937
97.5155235839199
97.5132702745311
97.4876834459234
97.4650332218467
97.5004905581382
97.5214577952703
97.5017723678933
97.5232429069025
97.5232100466946
97.5092796366074
97.4967686601818
97.4962278692101
97.4929166039273
97.4930587579195
97.5075845974283
97.4915181489771
97.4256071839082
97.4918944828741
97.5506343742774
97.5129977583244
97.5472982984708
97.6495414031205
97.6022484640831
97.4818202346283
97.443396142712
97.4942593989437
97.513564597803
97.4829768739342
97.5039531383798
97.4936351410575
97.4952540387185
97.5676028816416
97.539732391225
97.4726622727098
97.4660338575206
97.5095804062204
97.5544528024314
97.5515244586504
97.487088217555
97.4427898259681
97.4635131748501
97.506487642522
97.5126279752553
97.505199928161
97.5048471689234
97.5271921412667
97.5113998265759
97.4946169374811
97.4566735812515
97.4066159399673
97.4587487431216
97.5285699367357
97.5187794541343
97.4936452259059
97.4552349439715
97.3982902733463
97.3728199554647
97.3985939663198
97.3854413504199
97.371357679013
97.395275400566
97.4169708096166
97.3981868045605
97.3529813572183
97.3251922883439
97.373707257369
97.3915098179302
97.3145746584007
97.2653224119174
97.2910819978611
97.3359457732308
97.3469516978044
97.3190236866398
97.283022283568
97.2244901958953
97.2208643936704
97.2744441778427
97.307380072955
97.31666120405
97.3074886332049
97.3024270351834
97.2935601563617
97.2449142540064
97.256798926632
97.2520869653871
97.1859673735055
97.1565415910981
97.1683718056981
97.1939692340385
97.170928338194
97.1379911104061
97.1704877223602
97.2056424924138
97.1837663400359
97.1311986068868
97.1332421835112
97.1288870354851
97.1075697004827
97.1029460175963
97.121213828854
97.1368101486217
97.1506069797553
97.1497093598565
97.1285024079764
97.148425561054
97.2202039919226
97.2755591169853
97.2484573516191
97.2325718430388
97.2620760375509
97.2714879172061
97.3303008599464
97.3312300516531
97.2973189551842
97.3204054593056
97.3222464717181
97.266910220496
97.2374855151966
97.2363417260727
97.2054660668163
97.203122451126
97.1711352318021
97.0569313577483
96.9803846421974
96.9662480224475
96.9745509657798
96.9409014724223
96.9011679271752
96.8624781211548
96.8308262900158
96.8537828940971
96.8828950498592
96.8650805233059
96.809654240728
96.7972520674921
96.8206785625839
96.7628160541163
96.692153733944
96.6420605117578
96.5943969304145
96.5644349159599
96.4852979054765
96.3468008566709
96.2070524639961
96.0991711116806
96.0296692274743
96.0076072846406
95.9940319183781
95.9477072158426
95.9151004658475
95.9052100586817
95.9280491746125
95.9777409565451
96.0368561642038
96.0579539718101
96.1030158072318
96.2057331403546
96.2782043589788
96.3345505910052
96.4546097341834
96.5832959979398
96.657004661741
96.720933753876
96.779035960289
96.763697498974
96.812876397656
96.9160719698073
96.9084750673532
96.8806222249367
96.9109550733878
96.9373536259646
96.9313849858479
96.8984446083493
96.8762991534236
96.8687197813353
96.8574358342695
96.8286853253771
96.7704282333568
96.7027468952861
96.6640061357438
96.6177168013667
96.5744831291804
96.5691796201802
96.5900033430234
96.6512191221985
96.7262171745687
96.7340053689058
96.7337222638489
96.7530548279243
96.7709767979325
96.7707982755596
96.7676260845624
96.8109344054093
96.8559582021813
96.818301985699
96.7582172974895
96.7870044073246
96.8558370375642
96.856659956602
96.8432922209827
96.8649419978998
96.9029314584183
96.9104698116841
96.9062874712465
96.9302974972418
96.9711357293577
96.9651222462531
96.9380054234231
96.955828073359
96.9688035516804
96.9554322798612
97.0207328540218
97.0704795011265
97.0584397727918
97.0714271321013
97.0645090447898
97.0446258979486
97.0830701879543
97.0850776375349
97.0678387205445
97.1461835735297
97.2081121062247
97.1976901539913
97.1582699130365
97.1133142551314
97.1553795380432
97.2276469916299
97.2250774650393
97.2050201023857
97.2011274141876
97.1792284942242
97.1736005905668
97.1525876765718
97.1182937355471
97.1178825579896
97.1281407831497
97.1466885404428
97.1749951118857
97.1568050946095
97.1400956829841
97.1604691099401
97.1865187856952
97.2118558829182
97.2133077848513
97.1821318465851
97.193116486052
97.2253647311749
97.2425545689457
97.2445484856574
97.2439023147222
97.2801250968234
97.3268512540754
97.3095670984385
97.279607673101
97.2697136933553
97.2568910947375
97.2385298728704
97.2190506003116
97.2304479371776
97.2347244358296
97.2319146741958
97.2634904096747
97.2672137521529
97.2720800117003
97.2647329814471
97.2398686519598
97.2748315186519
97.2909827720557
97.2549282609825
97.2523836148156
97.2564293333805
97.2740959081273
97.2832244193475
97.2403237216004
97.2321012057312
97.2706422583807
97.2698094423052
97.2547008817816
97.2691736425056
97.2853133825262
97.2757695521287
97.3110555578933
97.3510390378337
97.3151613957717
97.2773533195075
97.305041710467
97.3486084821888
97.3541883976555
97.3161066261068
97.3052671362831
97.3345878675137
97.3422395854738
97.316247179597
97.2848269769248
97.2574272619073
97.2907268433793
97.3552318603341
97.3517787342399
97.3446633099938
97.3448100586161
97.306304136119
97.303061555797
97.3108255514808
97.3225153218835
97.3716794800945
97.3567390587882
97.2943853782382
97.3049279143849
97.3366699193717
97.3371915595921
97.3356187568693
97.2860445164579
97.219091388936
97.2288862363405
97.2532414190305
97.2515805137025
97.2456277120614
97.2338526549081
97.2385148754687
97.2505200452556
97.2271869920237
97.2039530145076
97.2342002729971
97.2843775640136
97.2610181702652
97.1951814592381
97.1862182372154
97.2151272691456
97.2203103944056
97.237550521977
97.2685464043622
97.2649478697438
97.2391939950373
97.242989360465
97.257167808464
97.2525873517488
97.2703878625888
97.2795149126774
97.2427393617227
97.2482728947821
97.2684091368513
97.2718528444541
97.2589175274984
97.256100040486
97.2749984765611
97.3006235855124
97.3540098189803
97.3902264961729
97.3548353095858
97.3238074842301
97.358932616899
97.3870397007903
97.3526455889614
97.2945574062853
97.2670499860286
97.3084979729135
97.362662206108
97.3874726757022
97.3751010325156
97.3304357570585
97.3532112130135
97.4229449952381
97.4109489730241
97.3695687333403
97.3674612881767
97.3696925925878
97.3657198760352
97.3914043688395
97.4172531803711
97.395208780818
97.349112020646
97.3553773223417
97.4101824838188
97.4805593787483
97.5302954493086
97.4781023694338
97.367495276834
97.3473658231296
97.3875800505499
97.3838201832889
97.3821555319541
97.4457875074982
97.453836226699
97.4233450082953
97.4215524090905
97.3966445015048
97.369085873488
97.3943078589807
97.4701770892681
97.5085683704039
97.399640280022
97.3454017532083
97.421987486924
97.4632757328806
97.4401955385419
97.4794438654446
97.5155785746636
97.4873708637664
97.5107226005435
97.4994227358005
97.4511383045194
97.4829185302895
97.4901398063351
97.4367465281379
97.4537428869935
97.5634715360951
97.5959445149342
97.5550851030587
97.5388374906548
97.5355320211634
97.5086962787703
97.4517488801197
97.4718539046298
97.5508960139079
97.5869543536037
97.5801309507087
97.5490967264858
97.5384176938833
97.508543734949
97.4985535920265
97.5765109882619
97.5711725930627
97.4364522172057
97.4050684749996
97.4199561654276
97.4106629069653
97.4531292217341
97.520587218436
97.5576923787741
97.567654194265
97.5922176071146
97.6299218661823
97.6381329440517
97.5612479112525
97.4572006492577
97.4699732723264
97.5525445192361
97.5758654029492
97.5727177587745
97.5825202312975
97.5723900677005
97.5439430897428
97.5207633083521
97.4770168490999
97.5081669914292
97.5621573738386
97.5027318119302
97.4683957957783
97.4683531635187
97.4617664258696
97.4764095218418
97.5189457391567
97.5323384685474
97.4916314123618
97.4886695637747
97.5420904423295
97.5329606091956
97.4944307789036
97.4896631526987
97.4961463875571
97.5253121800952
97.5217760778776
97.5308034600488
97.5098474821093
97.4730524296357
97.4723923816024
97.4568536511328
97.4949207545733
97.5496953683568
97.4577043051437
97.3987408581687
97.5395001275234
97.5557032522473
97.534275175962
97.5864091588498
97.6340647485574
97.655740378563
97.6572659445567
97.6420155708994
97.5984534840424
97.5706830389652
97.5110993436396
97.436801068712
97.3725387587284
97.3779811593632
97.4943970395001
97.5660014257749
97.5925477071368
97.5785449681232
97.4864668162071
97.4837690321479
97.5938512758265
97.5620701248584
97.375222468001
97.2353127130307
97.2642193701041
97.333472896428
97.3466251744262
97.3583810471163
97.4681440236782
97.5452665602725
97.5052889632955
97.4553580974695
97.4664991642301
97.4508508688031
97.4405570674515
97.5170006747654
97.5547555603212
97.4650035378556
97.4032799506684
97.4002356910002
97.3898615313957
97.413198346617
97.4278756801398
97.4109790225982
97.3884545044913
97.4372340475515
97.517522722824
97.515174596986
97.543806367214
97.5513132156747
97.5274141981298
97.5636840511005
97.5880288183314
97.6672577484248
97.7599268558959
97.7622924840537
97.7176936293812
97.6262404710866
97.6021437902325
97.6584010233103
97.6943254032336
97.7508287478653
97.8315191310986
97.8976824967903
97.7876668468022
97.6959542697729
97.8263785316487
97.8191318547636
97.7653125694818
97.8024193330404
97.8479263917962
97.8265926397932
97.7745539654121
97.8116025230923
97.9152444309465
98.0038092816968
98.0592214917969
97.9927456992778
97.8955222563334
97.9224541926867
97.9680912905588
97.9979370395558
98.0708092783799
98.1236966152293
98.1161839447478
98.0124888478122
98.0036162510037
98.2329879804452
98.2958863758388
98.1909036396203
98.1830484185404
98.1385693191507
98.2156796107019
98.3476568321259
98.4159800688662
98.4379026904733
98.2864190862007
98.1999901963012
98.2296790747464
98.2762075904574
98.1948918556856
98.2487686520016
98.4000540093737
98.3133773482429
98.3879006294163
98.6435973489079
98.4675014166988
98.1086151304292
98.1339909785362
98.2706225645992
98.1886976562897
98.2766775655714
98.5598896696407
98.6605318462045
98.605721198911
98.661716908218
98.6229606910556
98.4544153779942
98.3975315175239
98.3317144484559
98.3416606020078
98.4573499873222
98.4217410878982
98.3665230628251
98.4602613711337
98.4578892757817
98.2676606891764
98.0874902016747
98.1614862494644
98.2717309897567
98.1350326564442
97.8869198537605
97.9055326279946
97.9609168974933
97.8102324327367
97.7421508976175
97.8254996286564
97.9223280737223
97.9324460808223
97.9509362374672
98.0327993846138
98.0140054370182
97.824801138291
97.7098020409972
97.824310922296
97.9328358368175
98.0031162091305
98.0411905255214
97.9543326737216
97.96725233021
98.0738798034351
98.0972897276548
98.0752896280344
98.0871460701173
98.0187290985502
98.0690780807904
97.9845113858578
97.8837761659765
98.042334087933
98.1278613452788
98.0611807622863
97.9647900794041
97.922760941832
97.9497854434377
98.1569053921934
98.3559832273778
98.3770995357293
98.4469884801044
98.430711956037
98.1994517673127
98.2109739047847
98.5016843646338
98.5452574226121
98.493208430889
98.79583386914
98.7869084120437
98.4032153246998
98.5325901699128
98.6536661879544
98.5461091761413
98.5223069451923
98.5044115910983
98.3268612101578
98.2465095588865
98.4371271330341
98.6809423982131
98.8508490311442
98.942018042954
98.8472150141024
98.6743631156687
98.454830495328
98.4786597093203
98.6500198088608
98.8214225966606
98.6934491797843
98.4948932067053
98.5894653242861
98.5350955744214
98.4475548916317
98.4725165748815
98.4138997485722
98.3880705769027
98.4738717134163
98.4255867119227
98.346398338425
98.4064907793862
98.4347721411958
98.4188356212642
98.5629236221534
98.7517697270467
98.6131722303895
98.7656461929665
99.2184958411929
99.0904106652413
98.5728314031892
98.5440813273107
98.8350583473758
98.6119886705806
98.3839187178176
98.4344764470518
98.3939563897541
98.3464644430939
98.3452764951386
98.2448692657725
98.1297664211018
98.0656021312036
98.0131363313735
98.0572794999448
98.2174244437448
98.2959208169469
98.3474230401836
98.3815304807469
98.3421434034051
98.2408320244937
98.2401595509518
98.3607215524069
98.3965911609633
98.348865604382
98.3318764959909
98.3151558746869
98.224702272016
98.2653543101154
98.4142713720836
98.4808845585646
98.4696139237908
98.3990511391473
98.3347820066901
98.3795885736138
98.4710005459076
98.4619679585234
98.3915454892823
98.4204335409362
98.469372648731
98.5386853214215
98.5651642943684
98.5171674376162
98.4113567707803
98.424804329272
98.4778967225865
98.5617246753804
98.5999314284057
98.6127558254119
98.5163276919942
98.4401785044375
98.4815297554703
98.595828020368
98.5900044163053
98.4592175241877
98.4350737002527
98.5228291797692
98.5579138833261
98.5499459882756
98.5101391354259
98.4851797585508
98.4674704260908
98.4595030890183
98.430588253577
98.3552503884841
98.3180198518546
98.4080895898676
98.4056689165744
98.4302610913348
98.4423238057076
98.3770150147657
98.2699578311739
98.2182115234118
98.2553341271491
98.2334060871085
98.0865480860852
98.1413986301039
98.1316438224238
98.1547317215676
98.1973959686873
98.2417634263885
98.2640494931204
98.2922202656136
98.2808502180714
98.2441633351732
98.1976986900016
98.2149419110213
98.2088587309647
98.199124924966
98.1476339017803
98.073913878007
98.1127686015503
98.2143164356832
98.225232371718
98.1981533533007
98.0978321098153
98.1729742096123
98.2460506689159
98.2805681073147
98.2581661523128
98.26842724189
98.2182101668248
98.2441650186691
98.2785893229286
98.2710208341531
98.1794284950028
98.0828295646591
98.2431822122564
98.258165859296
98.2615860329147
98.1957580827431
98.0545276452923
98.0002452731037
97.9348145682651
97.7609067115337
97.6805469101791
97.4299959638619
96.983384008035
96.5565795170348
96.0352705495816
95.3819983806972
94.4075655967619
93.2756185634147
91.9573413160465
90.7233952800651
89.6003199669697
87.8399220744699
86.7620705813236
85.9795876971249
84.8830647380437
83.8404089505272
82.7186925378501
81.560292305638
80.5430447679213
79.1931520095673
77.5237437656026
76.8821361621037
76.7789718620493
76.8477164369833
76.9501142238259
77.1204734234527
77.4024802627736
78.3508672602577
79.0808860696906
79.2889949224595
81.1182575862191
82.0934063088006
83.1129907293447
84.4034477799991
84.5010807600366
84.6925863186832
85.0399531374194
84.7120182816022
84.7845054811462
86.8451689809783
87.4254777784999
87.5574503842781
87.3564365343864
87.758875549272
88.6448812279281
88.5887072311045
88.9803256718414
90.1198989612032
90.3489574323399
90.0944626623764
90.5998201371089
91.3005911266751
91.4301137258673
91.026349257717
89.8492159326967
91.0855268013937
93.1059821554055
92.6376658412366
92.1488935382318
93.0327115868099
93.4500047047847
93.2635705441069
93.0039560719849
92.5844949314578
92.5670868398316
93.8158740371579
94.1952937315571
93.9203981733725
93.7289606160957
93.8785939095432
93.855220847344
93.9942211929684
94.3872988356371
94.1867732878123
93.7851791693944
94.19462135051
94.4842209962677
94.3074918298033
94.2667674524576
94.4449338850083
94.7076958283116
94.8105738320645
94.9331247404869
95.0844550601162
95.2477141346423
95.3443250943327
95.4353540467355
95.4953688912111
95.5309420716694
95.5047207165775
95.4493510378515
95.312230552818
95.1014731407249
94.7825635756404
94.4747898670052
94.0183579158986
93.9235002047571
94.8152958781084
95.1565121197147
94.997841359151
95.3286540058176
95.7864573516623
95.831938466754
95.8737890341403
95.4745630788235
94.6971667346683
95.8899903289704
96.5912058169146
96.5466982185062
96.5084909794271
96.3372406134718
96.4569998191704
96.3605550472708
96.1963788626614
96.1589009318297
96.0405615824444
96.5460120371096
97.0187616510594
96.8246571645465
96.5667356574905
96.777495484093
96.7233617573274
96.4872752483625
96.3955584643305
96.4458706063024
96.2258435803858
96.4883184183556
96.7754882026767
96.7163967465554
96.8350670495886
96.6655819010522
96.2375566668305
95.4611719809467
94.076269293264
93.6892948451268
94.2688570149062
94.7097759490483
95.1791999976405
95.7453172782366
96.4247333876854
96.9251612110927
96.9445645917454
96.7137823138759
96.7324080740296
96.8140156580118
96.7375702962391
96.4539085761569
96.1351371731424
95.9333997623143
95.5895958127444
95.1441022716924
94.6239958777117
94.3933283497366
94.7643141561075
94.9162228025462
94.9243042737425
94.9841976473314
95.1818007376255
94.9395995519739
94.4121505126294
94.1299624010865
94.6759596631964
94.7622535094083
94.7161700104636
94.646670468198
94.6907766878496
94.9302897506973
95.0099325548056
95.0562362997789
95.1475933944463
95.0513581279758
95.1699082327757
95.8005511112367
96.0641292202018
96.21441583637
96.4577348441269
96.6865883369595
96.6693538537729
96.5686645360869
96.3655412763927
95.7895495037427
95.1308644836231
94.1396626097253
92.5524632219466
90.6822705806917
89.1245373310098
88.4942731210412
88.6531449860205
89.6278543157437
91.0069163585764
91.9321710241274
92.6276985804596
93.3937055661848
93.8187898705606
94.2928194263146
94.5640951915302
94.5199770228246
94.4097616592173
94.5137671490754
94.6662578137671
94.6805262117081
94.6736026571446
94.6547521219437
94.6286913620056
94.4912768603247
94.4484497891709
94.4423237243597
94.4193065838092
94.6199934292014
94.9198247533228
95.1414096279873
95.512253761405
95.8777743763083
95.9732126184803
95.8892821007131
95.7261814708453
95.4092896064474
94.8269549958908
93.9074072451862
92.5912520759647
90.8902909795037
89.1424200630925
87.7250481224914
87.160781696279
87.9065551825873
89.4537074552175
91.2206629393459
92.8595372563035
94.1464662701144
94.9561209186015
95.3811386396213
95.544234269703
95.5376816270464
95.4292724586171
95.2672331902
95.0892666226413
94.8905667058169
94.6685001353854
94.4209023061396
94.1209217493006
93.8014490603312
93.4959129680179
93.1855914008405
92.830766605554
92.3757989449022
91.8176904684839
91.1494675942078
90.4445621604223
89.7480001298248
89.0958668983113
88.4593369826075
87.8141909746665
87.1754301988778
86.5226361183784
85.8643597755386
85.2173120780779
84.5944962815203
83.9781045696722
83.3569363903279
82.7098596115257
82.0612512202881
81.4426344774609
80.7979168169342
80.1403371690253
79.5504521402745
79.0374897191338
78.608428450234
78.2577972509169
77.9330813485834
77.6048615503568
77.2513796369327
76.8748712362475
76.4901162332428
76.1116983047897
75.7491853530242
75.470058167963
75.2938705506123
75.2169898021621
75.2747428396524
75.4466328864261
75.7344729900936
76.1097013263575
76.5207894523556
76.9541856402846
77.3904834813614
77.8197044645552
78.2639730192463
78.7631685176364
79.3428928116473
79.9734079367618
80.6239115888746
81.2670049305838
81.8956055528061
82.5005060076098
83.0972013047258
83.6986985179979
84.2956637084328
84.8825808055528
85.4782326045946
86.0745835170358
86.6540796753711
87.2302360976018
87.7661862894763
88.2421967530322
88.6750330810068
89.0603042488079
89.370731472584
89.5816836563113
89.7155910739194
89.786298095448
89.8059513329622
89.860803160098
90.0255200620798
90.347640078096
90.8283614239719
91.368138350341
91.8600770634129
92.2359652872588
92.4887293596851
92.6540725076308
92.7650787696432
92.7965237878578
92.7297501962258
92.5776023679116
92.353338615851
92.0522133793965
91.6696788001907
91.2003294221082
90.6172600904271
89.9080297166512
89.0620583675219
88.0386661242901
86.8640312713748
85.6062785792146
84.3473986674263
83.2145693463071
82.2748096531585
81.5059184848064
80.8740873283967
80.3453810096532
79.902440832625
79.5831295886173
79.4294017710412
79.4036449806824
79.4363955874053
79.4418264744699
79.3515508924753
79.0983652996887
78.6695160835179
78.1443024680034
77.6056694080795
77.1149100911209
76.6754610120014
76.3261098490523
76.0980584697427
75.9598288385482
75.9046679543937
75.8901788945969
75.9127195267901
76.01735495513
76.1806589984927
76.3636449560224
76.6351681447623
77.0070788205891
77.4650891641102
77.9998747830477
78.5920088047424
79.1812559631183
79.7440060639554
80.3004417556174
80.8392434223692
81.3559004372309
81.8310564009096
82.2552032982108
82.6480029659456
82.9681034376133
83.2045686600242
83.3679614085873
83.4558628234533
83.5122315876582
83.5441599050877
83.5787850418085
83.6600002943452
83.8021600154703
84.0005975050674
84.2467080284782
84.5495215293782
84.9125391868267
85.2947803749866
85.6373290622709
85.6260424781878
84.8138549580556
83.2276436202401
81.5380172728779
80.1906019632897
79.0648595101443
78.2833374244286
78.2644224557833
79.0935179519413
80.3006293247511
81.3977161962859
82.2677636257997
82.9567782294293
83.4905874665138
83.9364780037798
84.2992543476244
84.625025827794
84.9188966472858
85.1829137392524
85.4060274913899
85.5606873760607
85.6552706228264
85.7472014099401
85.8539124168455
85.9435374310483
85.935769674556
85.8023555447387
85.5637152774282
85.1995624952034
84.7479683152447
84.3444890805281
84.1390990202706
84.1690710596141
84.4100127858473
84.736752391829
85.0480597854068
85.3759819537598
85.7230154268283
86.024506552996
86.3080966430968
86.5806701944476
86.8125509063645
87.0301288602248
87.2406126643036
87.4070732384551
87.5553056589216
87.7140016040736
87.8786661649144
87.9968059309471
88.1119860930734
88.2555375576601
88.3585942331915
88.4490403417895
88.573324004695
88.734004687836
88.8858930539661
89.0128802148038
89.1302093687994
89.231164801173
89.322821593494
89.4079915116325
89.4628354340528
89.5139142277539
89.5033668485487
89.4474107317791
89.3796371404576
89.2323298075741
89.0717844283921
88.950395913107
88.849080451557
88.8104935113426
88.875917069642
88.9603612021236
89.0458052573307
89.1563068453455
89.2603217422032
89.266226619458
89.1144287721846
88.7751259726931
88.2595267607196
87.6228569112622
86.8526427587099
85.7659707812715
84.1966485459211
82.7115603813753
82.5670373888771
83.6290411280243
84.7451880883652
85.5194799006725
86.0466084079603
86.3511205696455
86.4874409158758
86.4954697810327
86.4817129593704
86.4047831547458
86.2174962455122
85.9273662818284
85.6604572013589
85.5494584343618
85.6378887336861
85.9043466281857
86.2247585875977
86.5383741658542
86.8734924698885
87.1340909945625
87.382270620126
87.7390892720126
88.0495807597063
88.2429031719224
88.4407411191253
88.6254319816258
88.8099624063363
89.0212066074734
89.1596449653583
89.2441762152751
89.3470743146248
89.4083870116087
89.4708816809878
89.5382746561407
89.6064813527527
89.6836184232707
89.8140580653996
89.8659013877918
89.8821795774991
89.8418662620533
89.3433341083129
88.6529378227932
88.4669768919094
88.7199629796286
89.0959308830995
89.528185092851
89.9910323457925
90.3673997075512
90.6510710041667
90.9388681356616
91.2626143675037
91.5032163540745
91.7236811388323
92.0781726828834
92.4033319338469
92.6552270555326
92.9422981894646
93.2032259565683
93.467360848343
93.7012162032342
93.9618700361467
94.2193315887587
94.5088180103525
94.7885353261161
95.0147951316848
95.2031831794864
95.3148840214892
95.1768847369934
94.7869210274504
93.9494877654578
92.5458867878109
90.5651213936794
88.1988521666538
85.7672319152454
83.4194393618974
81.1726811839461
78.872825168028
76.5695664477429
74.6121421899858
73.4764182742841
73.2094152612969
73.5516040505756
74.230146402714
75.0321472729901
75.8064006290284
76.5986775243168
77.1774879535765
77.6396219100813
78.2922606054919
78.9374312878916
79.5597189175437
80.0328680389417
80.5162662560056
81.278068933072
81.8683101130158
82.401962993455
82.8935588011611
83.3437407768815
83.7106849813809
83.8102373787057
83.8251538799995
84.1171632348078
84.416042087607
84.5585621649014
84.6407675547424
84.8034634436108
85.0685408884501
85.1144349511525
84.8387016034672
85.8051747573838
86.2424402640346
85.9270463758691
86.1258589887391
86.30511027245
86.5936696914423
87.0310931689371
86.901547202262
86.977146714015
87.268565346234
