1798
3999.43349933624
650.420452594757
1
128
4
97.8120943788105
97.8202064409626
97.8751226255546
97.8645205157764
97.7957198698794
97.7822602031482
97.863905849226
97.8831060791188
97.8561106099412
97.8349050434643
97.8372830269336
97.7558498180565
97.7855401401755
97.8338664660309
97.8596735949827
97.8610319435569
97.8716408900172
97.8811905655234
97.8556569862604
97.8425222699966
97.7862684335125
97.6650212567551
97.7328325185698
97.7723625178129
97.762175690473
97.7697830741514
97.8546378980519
97.8775923078811
97.7935069662595
97.7803010179345
97.8525069861729
97.8608444640911
97.8560893137718
97.815011914164
97.6627469606894
97.5695665424511
97.7361204212419
97.7987208633736
97.8150082788372
97.8027548810853
97.839337424686
97.857684263103
97.7184298300794
97.7085582318186
97.7991485494481
97.8612106691027
97.9078681757245
97.8754811934644
97.8245726297
97.6338274634101
97.3887957276698
97.4500086854695
97.6717787085895
97.8776523892191
98.0508652065169
98.0033030577378
97.7760356594492
97.7262040399885
97.7727262429752
97.687255746724
97.61214443436
97.6743950537744
97.7555256184119
97.7758224252845
97.8384568831907
97.8288075011723
97.7207545056277
97.4815592082486
97.5933902435275
97.6897235424222
97.8190608598893
97.781251247388
97.7845275606786
97.8951309219919
97.9235678377746
97.7933936897267
97.371310814529
97.1024450928317
97.4020340794326
97.9782338862622
98.1523382960438
98.0703839973013
97.9069729648251
97.7183900411443
97.5787788075403
97.4280886089766
97.4745080383041
97.7236053148171
97.8077107254328
97.878303019318
97.8189567624719
97.80912947838
97.8503088260102
97.6471206932651
97.4451145268087
97.5671119757919
97.6712547600971
97.7560910431971
97.8924069027455
98.0947481997729
97.9692299393041
97.7644463378414
97.6632562816665
97.6390469034022
97.6452761104803
97.6018918909597
97.6102273742538
97.7928242331065
97.8379627150386
97.9235580198985
97.9382026915738
97.8258024977293
97.7764624246883
97.7776648653519
97.7586115045664
97.7208812320951
97.7182636389736
97.682548880423
97.7339986753139
97.9463283751325
97.9029255161598
97.7421029265748
97.7193623931991
97.677688200264
97.731407327896
97.776079199749
97.7633436399767
97.6866661782333
97.6396050632625
97.7049439888596
97.6332341707566
97.480930923378
97.3333105945767
97.6991320083
97.6607973709612
97.5199406350335
97.6545461380824
98.0002097034219
98.0761427289126
97.8508170139357
97.7141292316553
97.5029801085742
97.6788796413837
97.8893540312135
97.9690792911815
97.8365623654957
97.7052862993285
97.6342708047342
97.5723582065197
97.6994377077548
97.8770628785178
97.8670182434801
97.7818289085144
97.5655787789644
97.5393687381706
97.7133873581801
97.9516443219841
97.9842899852164
97.8461084404632
97.8145964951234
97.8832005884928
97.8628556586178
97.8097411652734
97.7588700964013
97.5628563439336
97.314569740395
97.4592460404701
97.8306488988569
98.0499876558283
97.9537519970513
97.9909789035484
97.6496970359112
97.2742928741256
97.2669750505436
97.5816871022042
97.6823770732111
97.6439694848089
97.9845295781574
98.0568739778656
97.9288929674258
97.8617799013336
97.7288964771792
97.5157813080523
97.4563148580783
97.4776797369541
97.4451415175785
97.2293157736749
97.1310037340359
97.4820126688068
97.8296967707085
98.0993255246937
97.987256606188
97.7595830785238
97.71231131764
97.6275611239484
97.555627103523
97.4825067364762
97.3519373454176
97.2716231416301
97.6917376769386
97.9601480488548
97.8227271617357
97.5774860945129
97.4500145806896
97.5728085154917
97.5833224526634
97.4789493773774
97.466659603142
97.5483165159443
97.5460598942616
97.6338950541412
97.7773808869003
97.8729417503171
97.8428781665117
97.7355524704501
97.6495414985011
97.7069528009362
97.855916962735
97.876500511718
97.7396490550671
97.6350372833379
97.6994357842345
97.7760046287075
97.782196146848
97.8925274390604
97.8344121065493
97.676906544141
97.6874668634764
97.7800832694505
97.7515293146562
97.5243845698849
97.3292173070969
97.6232347935633
97.9047508440964
97.9537556970542
97.8422979967984
97.8395463479705
97.8184379263888
97.7647309879313
97.7496183925634
97.7102873099131
97.563049452201
97.5379137590862
97.7132014530604
97.8505216017581
97.859933092335
97.8342318601322
97.7488427663589
97.7567628253417
97.8120881010234
97.7213213987115
97.6782268210727
97.7558919033459
97.718930676249
97.6513773436512
97.7399138269333
97.8590462754004
97.8059395811781
97.7865665422631
97.8109041257687
97.8267026883452
97.7279208496825
97.6709184405235
97.6801673221658
97.7145271443309
97.7610496962443
97.8696434336373
97.8990795420136
97.8337007568128
97.8697790014888
97.9481447384989
97.9061643911582
97.893823906746
97.8897552637908
97.845318354023
97.9299446681425
98.1109669551989
98.0050929182955
97.8346226447281
97.8291591253548
97.9825890399564
98.0472498798681
97.9374510700871
97.8272969483243
97.8934192610759
97.9392769561847
97.9341275300938
97.8718738613119
97.85078713043
97.9676841794281
97.9828086707566
97.8395302056811
97.8267173759348
97.9075650666307
97.8212204342557
97.7225429455788
97.7964528413015
97.7786383591854
97.6951473927403
97.6373912310909
97.6048139136392
97.6171133967821
97.5879460910504
97.5626358076513
97.5446673192226
97.5951864275551
97.6407330540377
97.5489164697361
97.5552774487113
97.5902012059186
97.6193011389892
97.6182931997025
97.6329775019853
97.6796948081829
97.7624773215965
97.7704148074468
97.7347682891678
97.7488820291153
97.734780953781
97.6650847013494
97.7339370685839
97.7581195253915
97.7173700565595
97.7079005895755
97.7692959230146
97.836442253051
97.9047228008762
97.9092416167765
97.8960434310056
97.8470978156648
97.8802471970363
97.8840360051023
97.7860678470745
97.7830521963322
97.8329812353568
97.7873662296023
97.7577773971684
97.7630287446524
97.8204334424054
97.9534940214266
97.9642113316235
97.8136961767359
97.8186079457904
97.8452330463317
97.772544786902
97.7699141039924
97.8254729885478
97.7285938363897
97.6500332559159
97.7473510857327
97.8516767902034
97.9098460961295
97.9674472307222
97.8645618306358
97.7038948481053
97.7593749768288
97.8396963288762
97.7156181495507
97.6444529596773
97.6284818931702
97.7169639308004
97.77223883537
97.7589244230962
97.7906469445013
97.7769825635467
97.7636521342311
97.7823827248301
97.7622737418088
97.80184943954
97.8389744909486
97.7955178708932
97.7468044135211
97.735759550529
97.7558362180352
97.8390302017511
97.8354989130819
97.7968904133695
97.7830370067642
97.743271768474
97.6704935620959
97.6494251964597
97.6786312446318
97.7183134849346
97.7328742238761
97.6945687056677
97.6833395771407
97.7447794477564
97.8092353594505
97.8560481605788
97.8047046473097
97.7502809775791
97.7142426885888
97.6961654785777
97.6664689152738
97.6597418882666
97.6989188225679
97.7854868728316
97.7919057607068
97.7643250467182
97.7828770713068
97.8277576782868
97.8718375354335
97.830443974138
97.7195108392144
97.7195927231474
97.7688144111559
97.719358657914
97.6417412720565
97.6390752369933
97.7338564567742
97.7935223538258
97.81358852984
97.8298751736532
97.7397327992907
97.6950030645542
97.6974891580027
97.6637442493658
97.7319696735252
97.8773060263693
97.8343588872323
97.7325589319408
97.6848808326796
97.7149222403594
97.7384786481415
97.7329196930744
97.7526234185328
97.7454227842415
97.6904561170594
97.676848872626
97.6899430319023
97.7354470940574
97.7086328469179
97.6906444000778
97.7386051417255
97.7463650014109
97.7339159360393
97.7297702445787
97.7693074417749
97.7996294855226
97.7803301686081
97.7242446035779
97.7209006868066
97.7773694462705
97.7090234017179
97.6630572852749
97.6957659897795
97.7265876848459
97.6963094498495
97.710570151782
97.780323997402
97.835683507377
97.8326353559258
97.8127049749748
97.8030655486272
97.747453684445
97.7210615346077
97.741721421989
97.6959243027657
97.6735077784335
97.665414693696
97.6511421208973
97.6911571922538
97.7343926537263
97.706830109597
97.6535543796796
97.5779394292304
97.5743664372447
97.6136734122881
97.5944544182391
97.5657559996638
97.6230545404244
97.6649215921857
97.5694370790914
97.4529804996968
97.4913143628577
97.6008323045255
97.6220215300815
97.5480124719075
97.4904786096455
97.4637027570764
97.479083521265
97.4865032671811
97.4726454384765
97.47749858616
97.4847291565632
97.4893541727061
97.5391094624724
97.5618089744817
97.5789801076323
97.5802495078933
97.4926704139424
97.3922551266932
97.3765842047168
97.3951832834141
97.3429998281543
97.3262323714166
97.4028931060875
97.3942325261889
97.3733772079195
97.4034691971995
97.4570077816292
97.4032090028977
97.296718477307
97.3144990751112
97.3772206788603
97.3507706967206
97.2970073994066
97.2822094012655
97.2914179389105
97.3261686262463
97.4147404448671
97.4955423041207
97.5192692171922
97.5114649895067
97.5164544162042
97.5224991310146
97.5581684641166
97.5392937088534
97.4974705415512
97.495949970982
97.5304376864271
97.522099090341
97.4880540300861
97.5261035853255
97.5296631936118
97.4836976726145
97.439183673009
97.3570216770891
97.2694614868097
97.2203126837469
97.2087381162974
97.149992470309
97.1257193088521
97.1065136507497
97.0999970801874
97.1259399336498
97.1211026094144
97.1225464504231
97.1066108275735
97.0649024070376
97.0367382912559
96.9646780322474
96.9216961366012
96.9385630346921
96.913760145621
96.8109481392647
96.7066484071034
96.6406919112676
96.5638710023187
96.4427762812562
96.3275113277919
96.2227357634664
96.1454679657392
96.148613776621
96.1444197908171
96.0610294678321
96.0554180032637
96.1144379850878
96.1348229340412
96.1613193364993
96.2389367015456
96.330264174238
96.3879443505264
96.4411614590421
96.566734652086
96.6957187628439
96.7877085110329
96.8567085372091
96.9128783888862
96.9721110641223
97.0927074202842
97.1697856321033
97.1324985357362
97.1129321455967
97.1610373224359
97.1758794769868
97.1520276808024
97.1543040048853
97.1359460091339
97.0814174893404
97.0677853549554
97.085576886029
97.0664743152329
96.9667989508139
96.8901072488929
96.8518073939744
96.809815793857
96.7732254385722
96.753644381699
96.802896575302
96.9100673714497
96.9365604794329
96.916794682185
96.936380012234
96.9725486039828
96.9702908907403
96.958010096064
96.9709161288937
97.0218959315707
97.0602059175915
97.0360138867577
97.0043799446882
97.0273462799703
97.0575662579649
97.064566680699
97.0753756481846
97.106671982301
97.1418599857191
97.1532367888017
97.1444830204233
97.1740166793924
97.1659769006656
97.148319098804
97.1564284837425
97.1424264075984
97.1408842895088
97.1868647257165
97.1994148417735
97.2173581030828
97.2490194449036
97.2600550609803
97.3054374705762
97.3609457477736
97.3397953083149
97.2861059917776
97.3257184447761
97.3962908383884
97.4021211823678
97.383562279323
97.3391965208074
97.3419262553674
97.3979040404966
97.4173855181087
97.4069316689445
97.427343486261
97.4292222809718
97.3941312105083
97.3468259764767
97.3336239377629
97.3431987436621
97.3558667196487
97.3786676526317
97.3921232545837
97.3777203966431
97.3726475641037
97.385306470349
97.4130016959155
97.4219363090251
97.4145029546245
97.4029818593393
97.4100050667957
97.4373359998786
97.4439525328811
97.416707894932
97.4176516743583
97.449554627103
97.4733941598832
97.4849206619264
97.4877617425535
97.4699794316286
97.4568445614818
97.4498194507474
97.4537163463886
97.4702373378183
97.4792634028041
97.4666495709719
97.4730517058325
97.4957125467527
97.4993314136736
97.4748851924681
97.4563275133958
97.4698817611938
97.4931642124078
97.476911301333
97.4443014655368
97.4403963934972
97.4859607946061
97.4939975087695
97.4635211248346
97.4760857382097
97.5217297610149
97.5033356138062
97.4618870298588
97.4806903507906
97.5043394569585
97.4932463922702
97.5197485018814
97.5381850374487
97.4858870126193
97.444876791855
97.4784910581549
97.5189484655977
97.5331974726986
97.5073505410624
97.5029077579992
97.5406817184129
97.5350848161015
97.5128294123507
97.5054926886832
97.4630296548993
97.4716913870003
97.5098783081531
97.5237877932471
97.5626536455447
97.5856375840162
97.5561447719051
97.5394489781176
97.5381363842699
97.5319311508021
97.5439210627553
97.5670091474801
97.5736665176001
97.5821779769677
97.5766552581611
97.5531451717125
97.5281550073805
97.4788014724461
97.4303587699602
97.4184158148981
97.4309705417842
97.4592231767783
97.4646783653145
97.4700659201818
97.4701691259216
97.4502056207384
97.4374392168205
97.4685016436974
97.4732362998144
97.4588172977442
97.4547708454505
97.4184019464079
97.4021204477525
97.4626191127741
97.4843007678074
97.4721550278938
97.5063640920039
97.5284371350199
97.5144884441232
97.4989538043351
97.4812044617778
97.4507132840629
97.446561353461
97.5212567760784
97.5515459046583
97.5512589125608
97.5620637140842
97.5585804649528
97.525547969573
97.4821167118606
97.5301766228188
97.6087777598944
97.5889002952231
97.6033698082608
97.6458540953672
97.6237826555105
97.5969282874071
97.5846318558078
97.5471696052946
97.505739386765
97.5111295955572
97.5748067369321
97.6051411678666
97.6194025120539
97.599922330034
97.5794267666358
97.5933247844258
97.5647761815614
97.5728308574628
97.6556131652008
97.6730537115976
97.6925042175314
97.6916302011699
97.647027524192
97.6305257182182
97.6181773030367
97.6242986998547
97.659482125051
97.6813662180362
97.7160323603396
97.7720974315681
97.7162894564486
97.6279870810301
97.6742210541169
97.6866494336977
97.6458410850095
97.673874199855
97.6982956689595
97.6726706871725
97.6667012526541
97.6723650704047
97.6328274411126
97.6199673426816
97.6937880526048
97.7146366181751
97.6786209647854
97.6213049685341
97.6261796214006
97.6924764353774
97.7359447363504
97.7443875969351
97.8169098182404
97.8438983737931
97.7471329256822
97.707980596326
97.7405812491278
97.7356834754254
97.7135578384931
97.6888211085634
97.6706502092759
97.6734182545254
97.7499472251653
97.7915898030479
97.7623959006697
97.794848573426
97.8468679505542
97.783174175763
97.6992269952574
97.7403401711481
97.7925934060886
97.815199346198
97.8403703243551
97.7694797207611
97.7429064284943
97.7876745192678
97.8316245832786
97.8855693544833
97.8484529862447
97.7611341557695
97.7207753659542
97.7041299915831
97.7154598018865
97.7229112032472
97.7704826956929
97.796767078136
97.7583151197735
97.7675832077907
97.7838572828028
97.7786981018046
97.7716087838926
97.7168098344493
97.7055986618025
97.7721397267147
97.8236604002411
97.8068128112041
97.7677344953377
97.7773622980761
97.8092826582318
97.7799859312932
97.6820650455503
97.6547267240941
97.705881601168
97.7064828921565
97.6923542180615
97.7273154815944
97.7504046120387
97.7073178712435
97.6818680162326
97.7282094039236
97.7568331937155
97.7578503083398
97.7658791607363
97.7086487063319
97.6730129149615
97.6862063388707
97.680780063721
97.7101495205897
97.7009825740982
97.6636644707725
97.6361029103352
97.6388311533284
97.6381197146191
97.6442529646682
97.7157763861625
97.7333811539498
97.638443423943
97.5675212964018
97.6428263029115
97.6490146245349
97.7006666671054
97.7717556616987
97.7757950051183
97.7533905748946
97.7554138849557
97.7862546166561
97.745319759289
97.7010690745055
97.599380671566
97.5186693437256
97.5113847458873
97.5517544861988
97.6267572814035
97.6478537083093
97.7328190644001
97.7503907936076
97.563375889914
97.5639624253872
97.7467634536811
97.7187416252786
97.5542411408899
97.437837605354
97.4533988432475
97.4979916840804
97.5448978427161
97.5862464220389
97.6476811986575
97.6569596367883
97.6161220867109
97.6155448193288
97.6199708669194
97.6072881462177
97.5841574185963
97.6195067427055
97.7229255312261
97.7127468384867
97.6264142475955
97.6370236564162
97.7125653618575
97.6899205672403
97.6637135663647
97.6450688864322
97.6060381807853
97.6327071819255
97.688189152942
97.7008479669293
97.7810071325495
97.8334996621941
97.856951103752
97.9493717730384
97.9580180012545
97.9537029688863
98.0264040567204
98.0673420219315
98.0609108267277
98.0631905594467
98.0116586873006
97.9178544490381
97.9459688457329
98.0035923537953
98.0255672516747
98.0990712971634
98.1152273378661
98.1314941142259
98.2247688520526
98.1427700764149
98.0590679262523
98.1363167024388
98.1890975351115
98.1552256265032
98.1808254398157
98.1997882971728
98.258479863916
98.2667472264109
98.2948526273044
98.2833144684578
98.1753318627557
98.2959643125603
98.2718320411744
98.1506829715679
98.3182713257252
98.4366236775206
98.3798283830042
98.3034615251804
98.3417394538465
98.528519293889
98.6773050485568
98.6887753768135
98.6310899367288
98.5058152003987
98.6005965329674
98.6951731939908
98.559926918201
98.5335474489711
98.7150388825552
98.6836803331438
98.6825368490965
98.7543101231826
98.8617504267007
98.9895261444181
98.7610459571606
98.4774226902709
98.7377446431021
98.8766383187592
98.8018187818517
98.697648818955
98.5754554063397
98.2638474068758
98.3331824307755
98.9105075941232
99.3486534812376
99.2737809042009
98.8690780503133
98.6089957592027
98.5273102050002
98.6224498783583
98.771082784688
98.8765187331468
98.9495590799905
98.8141299132558
98.6495517022261
98.5194578981087
98.4930670267138
98.543458819483
98.4374646303494
98.357750365537
98.393143517163
98.4054861076765
98.31267523327
98.2095851603293
98.1551811182199
98.0666173894941
97.9850607113465
97.9000514703231
97.9808244709188
98.0796567426663
98.0434109707991
98.1254050614936
98.088781768029
97.9233467749679
97.8952880823507
97.9194213123918
98.0473758620779
98.2231244272202
98.2803680292022
98.2012885978465
98.0963704990275
98.0639669342771
98.0368210308636
98.0863172563564
98.1941674207735
98.2585482544586
98.2435623024693
98.2699191438251
98.2454713290037
98.1803370655944
98.3216321786729
98.392080482693
98.3828579795714
98.308263393416
98.1911275010331
98.2667005599883
98.3257846594513
98.2266949101036
98.3233364835212
98.6469765759421
98.8489744177189
98.7475450648782
98.6766911100938
98.8231645374393
98.7710398729144
98.7191245564057
98.8866269154774
98.8959066956261
98.5740237110437
98.5986671335403
99.0150188504163
99.2595190288223
99.3543951833188
99.302471505165
98.9734020715586
98.8490929899806
98.9633020532834
98.9728565168682
98.8936462474486
98.8773894394799
98.929545840164
98.8934685176023
98.717485778554
98.8026037044337
99.0462178057673
98.9957185969967
98.905264082303
98.829706332253
98.7825153964141
98.7119153266291
98.7451138517713
98.7328852629805
98.6524414791968
98.6438294826324
98.6869439997314
98.559871940462
98.469999541191
98.6435412808338
98.6908824534553
98.4614708662487
98.5066607664923
98.8488872263121
99.0045515998071
99.2538051680692
99.437325421776
99.2242794878221
98.8853884332606
98.7855904188829
98.9121704999408
98.8976136039943
98.6936502856066
98.499150449287
98.4336970308623
98.4187280897285
98.3920230154352
98.4896345974891
98.525369173694
98.3895386039126
98.3009896467559
98.4444294419411
98.5740511369718
98.5850605200369
98.4785461457426
98.3450965977058
98.3061054337143
98.354626060509
98.461586637446
98.5479224649597
98.4897554200034
98.4130427421381
98.3518891277487
98.3961734190326
98.3553024533186
98.3706160601692
98.4952872830489
98.5486994621376
98.4479063980631
98.3423546214516
98.4358064471624
98.5793292643082
98.6386340953273
98.5503052584546
98.4066848495166
98.4240365668697
98.5161840647459
98.609433610458
98.665674433447
98.6454800169717
98.5267546540402
98.4901542899069
98.4988841023183
98.5666575936621
98.5410311755374
98.5148502606398
98.4707864267087
98.4670060798113
98.5762404817962
98.675833052969
98.5899305255815
98.500183473891
98.5401574305475
98.5729450781337
98.5817193501648
98.5733513980249
98.5601434867541
98.5401821930921
98.5066978172973
98.501401976597
98.5074483259771
98.4452796650914
98.3546893883962
98.3752392264688
98.3510042882889
98.5060909037591
98.5379508424828
98.4436786182169
98.3848842547264
98.3779257949842
98.3650867751987
98.3110787529253
98.2057736971756
98.2714378630431
98.2190363239042
98.3285788952509
98.3315866373058
98.272143731355
98.3165822783236
98.3966908603026
98.3972736906971
98.2975539579893
98.2033317968963
98.2975988130435
98.3489049762265
98.3231236555099
98.2569223438338
98.1741617669174
98.2184847446194
98.3365796087498
98.3140933734287
98.269339409199
98.1550013523171
98.3005097229755
98.4148453044234
98.4110148923482
98.3500534602609
98.4102253914676
98.3469779402917
98.3826213544199
98.4451564336524
98.4133259001386
98.3012669009484
98.2433883137681
98.4351898624973
98.3683347272458
98.4126060299017
98.4455045179047
98.3536821553944
98.3161377464969
98.2748382853077
98.1106224144041
98.1361137582509
98.0290770697528
97.729247889762
97.4122308040078
96.9419343452335
96.3989664049232
95.5660554072704
94.6372969324617
93.4937448635645
92.1709416857063
91.2370136540493
90.0386007009627
88.7956841698694
87.6285326394059
86.3365169305632
85.1466503053475
84.0409098649201
82.8509257841143
81.7705246888455
80.8127586900326
79.7798856633394
79.0176611214937
78.182930463174
77.5467626806554
77.207896950368
77.2096714293756
77.5600978447739
78.4295113036983
79.1736482202331
79.5362185193722
81.4734049960239
82.5946602807976
83.5566033337919
84.9931095390918
85.2330636808128
85.5044546493508
85.9743047455616
85.8362983222904
85.9050809300701
87.8772591549315
88.3226254970676
88.3872567780545
88.1804927233911
88.5556022464641
89.5140266770386
89.4341449141251
89.7142158020447
90.8965302228483
91.1624982064431
90.8056550045576
91.3023833408989
92.0950307768259
92.1726854348032
91.7598334399332
90.6275026242148
91.8706455933047
93.89990405312
93.2999478512416
92.6355247716538
93.5774017151299
94.0661706515357
93.8662233413619
93.5838330097572
93.1883257003385
93.1827054609101
94.4181099863938
94.7523176826827
94.4306069125324
94.1869155829801
94.4075396815274
94.4358543744896
94.5734151742012
94.9713538826875
94.715991171332
94.316050233072
94.7843289931903
95.0100880720579
94.7434179915017
94.6674209173827
94.7941474784981
95.021529499482
95.117064258046
95.286331090694
95.4588124767321
95.5936816406361
95.6645928124632
95.7519025165757
95.8211138115506
95.901274935857
95.9162227225261
95.916992493884
95.8272000205127
95.6914793322835
95.395909061713
94.9950738755895
94.3772658519965
94.2372949647462
95.1584407688126
95.3844565996429
95.1015306944448
95.4671983869522
95.9716208464728
95.9726761574082
96.0313899925272
95.5992442675543
94.8294126165707
96.2179289323331
96.8217091508905
96.6255306425824
96.5980042052986
96.3843650854698
96.5330738600262
96.4305601002076
96.218675986905
96.1569573026558
96.0618488865045
96.6381295511757
97.123730034614
96.8312761594825
96.5369705370149
96.8782034435517
96.8280600887478
96.5243377766847
96.3920479360353
96.5110231726696
96.2969182535009
96.5997747222923
96.8422565966989
96.7369765632493
96.9758965042058
96.9078663461644
96.583613786031
95.916646282966
94.8230157992393
94.4531786390609
94.614395572251
94.7451693044274
95.0876895887128
95.6469965205742
96.3899822812981
96.9681494305097
96.9918303519872
96.7576716277706
96.8899029463396
97.0419301614731
97.0312080026022
96.8011762960289
96.5459353746167
96.4297448483598
96.1045746862286
95.6822743315371
95.2005829766608
94.9844142451766
95.2627184448908
95.2880648864335
95.2640717257324
95.3824947461963
95.6360795209581
95.3608754349308
94.8774677579713
94.7004606370588
95.2506798981248
95.2013833116332
95.080807726091
94.997619403026
95.0625219297021
95.3114226492649
95.4000881773557
95.4440908551022
95.4722926182651
95.2910890450232
95.3692459810467
96.006958062455
96.195544754728
96.3067989828728
96.6011990828906
96.9104107029334
96.9568000378116
97.0051009482908
97.0300696767356
96.7405416551987
96.3870507303021
95.5745731713609
94.142003521197
92.3280355048504
90.5824134141721
89.5603283613911
89.3465916620777
90.0714657192142
91.3444704148232
92.1992976289109
92.8244206443472
93.6509556531443
94.1404061115308
94.6741924727541
95.0297921026776
95.0458773844106
94.9751965204478
95.116185287971
95.2638197557501
95.2583885224112
95.2743211792814
95.2395796640845
95.2099131489124
95.0460578681155
94.9874109525415
94.9548654533549
94.8571394946062
94.9994696320988
95.2792983404211
95.4433927636064
95.7954280198855
96.2000943398074
96.3952712492766
96.4664156085893
96.4551143638604
96.3362404752527
96.0151256748612
95.3806233405525
94.3338293325594
92.7897579318612
90.9874548794942
89.3525294749465
88.4327077591505
88.7184450124909
89.8757789063173
91.4348824203552
93.0067715620741
94.3360917857784
95.2565588077916
95.7989431687789
96.0361411201206
96.0980929488676
96.0767516267138
95.9785003114587
95.8496369011746
95.6753106804779
95.4578513330729
95.2297302092404
94.9715523844987
94.698586813932
94.4424623481114
94.1816471964594
93.8891048771003
93.5145891284847
93.0302800764598
92.4347246010316
91.7796862923085
91.1227996821136
90.5051448345401
89.8967133520334
89.3008071869131
88.71064727871
88.1092923246306
87.5004277732768
86.899527190301
86.3196760846497
85.7248773697589
85.1366486978681
84.5396297446628
83.9104851628374
83.2683016797044
82.5948258220404
81.927066085878
81.3272115032738
80.7686960508096
80.2790319278411
79.8914455105025
79.5691347395356
79.2506184861483
78.8845260643718
78.4879795086148
78.062776200344
77.6189160380896
77.1977577334458
76.8330830715852
76.5417485632554
76.3600976530261
76.3325085556074
76.4365654290354
76.6638233452738
77.0080125697118
77.4393373641425
77.8977874367666
78.3308682903331
78.7673210144804
79.2393886552488
79.7365242913045
80.2997604937069
80.9349386901469
81.5906922899642
82.232871243572
82.8676494750816
83.4831321894927
84.0793712860656
84.6715595685922
85.2550942747068
85.822377787071
86.3931777860382
86.9729676379404
87.5363577407631
88.0936147522746
88.6277423812709
89.1225223996016
89.5712475278535
89.9737417856204
90.3032291054229
90.5330322472801
90.6832407078077
90.7550033690781
90.7621169859586
90.7815508070802
90.8668410845698
91.097861266622
91.4970419787162
91.9852877996331
92.4683529433879
92.8578075500946
93.1216287496045
93.3112455346272
93.4461758918451
93.5347146381595
93.5515971595703
93.4761139595128
93.3109640400664
93.0860437675892
92.8004890292683
92.4292868381686
91.9692051701733
91.4157369431792
90.742191024977
89.8980081308433
88.8723492080933
87.712055096679
86.5018739881798
85.3553909624996
84.363620178571
83.5236585660915
82.8024403081536
82.1798342173562
81.642546964875
81.2277966340422
80.9802102373666
80.9095921164639
80.9613270733203
81.0309410315271
81.0039658528554
80.8010697836903
80.4129718866641
79.8956896796244
79.3176300144751
78.7406847173008
78.2017888666037
77.7571874771445
77.4207392503457
77.1839120103291
77.0550031404896
77.0035220480957
77.0083677437664
77.0613593555298
77.1719901076438
77.3257153858485
77.5545858538094
77.879003833001
78.3192024608
78.8565347579229
79.4629467343478
80.0733932642336
80.6540830169596
81.2293737474832
81.7950706267393
82.347751376583
82.8706937433734
83.3407148978233
83.7804686119453
84.1327668864792
84.4176338209139
84.6339912103312
84.7528666485244
84.8044101905599
84.8268430106986
84.8317980837663
84.8704864244364
84.9784779699527
85.1412058279699
85.3485551528655
85.6326943259285
86.0107886012518
86.4677727956837
86.9686881942556
87.2725790443469
86.8836311628173
85.5760495907832
83.8943214134593
82.3811082749289
80.9576187873623
79.7529383923972
79.326334897263
79.8910371196374
80.9957883371945
82.1173054535582
83.0563319333148
83.8100321436145
84.4155691932083
84.9283395885118
85.3402575186133
85.6932519591956
86.0157574519187
86.302354701011
86.5481282290389
86.7131740107262
86.7974898414446
86.8927334445897
87.0286960255885
87.1542701636528
87.1947514840321
87.1319035996663
86.9556339310097
86.6381985623784
86.2005609302104
85.789069521875
85.5236916408714
85.4652315992875
85.6235473177865
85.8629380614146
86.1296999427237
86.4533118473287
86.7784410808548
87.0599904883713
87.3443606170253
87.6140841915654
87.8257422156421
88.0113801801136
88.2192150624003
88.3959862848274
88.5429452369739
88.6934908513938
88.8292339938392
88.9187955872579
89.0353227218944
89.160428198466
89.2699537890353
89.3854857048689
89.4913917045039
89.6139610834045
89.7442579131658
89.8492160446661
89.9623834909015
90.0667643336841
90.1420103416576
90.209715029652
90.2866075595265
90.3496581202867
90.3679133334231
90.3560922973767
90.2849694145157
90.1351002972649
89.9807236018493
89.8450683964939
89.7159118514663
89.6656531269998
89.6814243325627
89.728888088134
89.8513341168811
89.9737975808002
90.0782566662588
90.1350791508777
90.0720587637062
89.8774959704946
89.5234829036912
89.0002003078328
88.2917239840757
87.2972128534565
85.7589800792113
84.1367586861295
83.7502702574706
84.6420530621611
85.7145094351786
86.5162029787258
87.0626950495611
87.3507372692486
87.5171182323285
87.605712189047
87.6520982635584
87.6198613092014
87.4633312238957
87.1759819893043
86.9336274154252
86.8223963912773
86.8086749448279
86.9918473377491
87.2779052791194
87.4965994977888
87.7617629258833
88.0440321457661
88.3144178831302
88.6270199881437
88.8898529544254
89.0584266800227
89.2298331564657
89.4144262483685
89.6133323598422
89.8451036158251
89.9589439191504
89.956112316305
90.0342012559437
90.1141578857494
90.2110909317574
90.3513846108999
90.383407463585
90.3760964322931
90.5002478881724
90.5894042468235
90.6625501782675
90.6241357580933
90.1654981048463
89.5591812780142
89.3299537894936
89.4973086837824
89.8049342261144
90.1471474888897
90.4647391031825
90.8450900134814
91.1818415202223
91.4111228574306
91.7059290984863
91.9381608292348
92.151828099053
92.4107025930661
92.6021130063461
92.9389802864706
93.2992372241713
93.5052378507247
93.7449219269396
93.9363386421264
94.1874010194027
94.4051029686289
94.5729896006418
94.8720860109367
95.2113349496991
95.4292554967978
95.5256717042486
95.4971370154944
95.4275608512665
94.9906925845227
93.8516048070793
92.026110356544
89.8017403402629
87.4239840677078
85.0112553859049
82.7500294885617
80.3621789570527
77.8234574127781
75.4783530737486
74.0304270823936
73.6484311444413
73.9252457524932
74.6700518575599
75.7262212735771
76.6313955128301
77.4009491298736
78.0614589577366
78.7876969032719
79.4651768458184
79.9843059617414
80.6289850682161
81.1593641107062
81.5457122679117
82.2242071313462
83.0599344562805
83.6717268016167
83.9037923403566
84.2226599219641
84.6241461340419
84.8740714192016
84.9956096642876
85.1279773296766
85.3786178944489
85.6346805920899
85.4942107569464
85.7094987912697
86.1603868589994
86.1582109008077
85.8616423783941
86.7699406066873
87.0920875559492
87.190327637704
87.221299055052
87.1832677946173
87.2516194842678
87.420719512636
87.9886299297511
88.3529583798064
88.0989405819502
