1798
3999.43349933624
650.420452594757
1
128
4
96.0561786865538
95.9642482959378
95.9133786203774
95.907456364031
95.9267302189129
95.9680706740264
95.977818267509
95.9401709628166
95.980999804207
95.9886145725498
95.9591046432982
95.9553250723154
95.9743813591463
95.9602508478368
96.0597201829048
96.0012885151218
95.905926457594
95.9432509301768
95.9819514196837
95.942883379702
95.9702273171787
95.9080042447134
95.9231308644062
96.0102511192882
96.027789750172
95.8955759386394
95.8378830097633
95.8413394858838
95.9274174474022
95.9469476379556
95.9668548529013
96.0767532338665
96.121365438492
96.1153767413801
96.098363540547
95.8863478468829
95.8554780144817
95.9594915092342
96.0080385861826
95.8843332187595
95.933368522359
95.9818765575706
95.8274135638327
95.7633292992495
95.9204357840302
96.1509918587246
96.202267306967
96.0884434278778
95.985779812566
95.8182803533898
95.6190448256828
95.5461165885394
95.6852217742932
95.9895338314447
96.2736149354465
96.202805265554
95.9974214023961
95.9882353538344
96.04929818308
95.946395193886
95.787475744529
95.9271349984683
95.979890418599
95.8468214555417
96.0135533349718
96.1432308432595
96.0702312280009
95.8464338570517
95.7831938267673
95.7707788434046
95.9390949695347
95.7943899574665
95.9095610980994
96.1252223404569
96.1980057702831
96.0302549068542
95.6262967716415
95.2571324134071
95.6412310940426
96.2818167085692
96.4669559208188
96.3723530999617
96.1075488889058
95.923908697148
95.7766936748514
95.488390183924
95.6052165965153
95.9831220440443
96.0280974389736
96.0006544763294
96.1006600640115
96.1444938795974
96.0955970581952
95.9449702780528
95.6860180218235
95.6015908687501
95.8063156856977
95.9439897742955
96.0782746019085
96.3218671174862
96.2410834422657
96.0871330516413
95.9862185849035
95.9474840088336
95.9052840261089
95.7158595981855
95.8040696079587
96.0617534820546
96.1146788285194
96.233717376546
96.2753028777248
96.2025363633473
96.0905204667846
95.9805756022383
95.9591156254181
95.9633112498384
95.9596195626132
95.8903638557704
95.9712722753392
96.0968036969441
96.0003027639983
95.9293408572854
95.9324178338144
95.858918476252
95.8994674690908
96.0267807204441
96.1278331548481
95.9959658541952
95.8546763267698
95.8977014765709
95.9193324971269
95.7355536376755
95.3339299773891
95.5802241748277
95.9947853296089
96.0569410696713
95.7984353769953
96.1751670443103
96.3433491191543
96.2040121478211
95.9492690606905
95.7030147147353
95.9414320866835
96.2275100258106
96.4757590467147
96.3228392979761
96.0799280953104
96.0234109582331
95.9972857109526
96.0619730085782
96.1764077381222
96.170481918887
95.9788592728646
95.715086925802
95.7501841143458
96.0979005203937
96.3521773907136
96.2873365801472
96.1891736238033
96.1108100529715
96.0299501366901
96.013477064562
96.0737043934002
96.1233811645128
95.9518629486957
95.656786837459
95.6470561410219
95.9376892692075
96.2384814983838
96.2977095438724
96.2093654513835
95.8732731016159
95.6821337028949
95.5345776924778
95.8479190803014
95.9713770029889
95.9047790336039
96.1534659806873
96.2621165958169
96.2087462577087
96.0924410975455
95.9261239669164
95.8568115246855
95.7433310032633
95.7042859984992
95.714019771299
95.4216328360107
95.3411463089068
95.6324970833387
95.9327289468667
96.0523371208805
95.9759828363502
95.9939453523469
95.8941290927331
95.7730677378877
95.8070810954583
95.8240503134947
95.6075761451559
95.4146694692322
95.912187703069
96.1373668522203
96.0005026344463
95.8439421843007
95.6108598820956
95.6443577603153
95.7779856577026
95.6671161673103
95.680636252208
95.6289075304867
95.4379137391737
95.7479343347897
96.0191922497683
96.0616188710007
96.0704709196837
96.0735905606324
95.9831814887501
95.8996728105277
95.9939655888342
96.0601829294042
95.8796539015094
95.7277165232761
95.9666827563417
96.1106913807475
96.0360805746242
96.0668345821671
96.0186852663907
95.9635074327207
96.0136265658928
96.0832808175568
95.9344560208671
95.7268497429535
95.5306536041627
95.5729408528643
95.7967143756886
95.9988768589978
96.0869615165351
96.0776805084664
95.906166927947
95.8323743017845
95.8913277937053
95.9647249334281
95.9540756376277
95.9306345757044
95.8875866841523
95.9336081963208
96.039533757199
95.9923302239793
95.8779581683338
95.9113027084744
96.004341632481
95.8859529992522
95.7348783653224
95.8025960563466
95.8598833358658
95.8776947041866
96.0240063604151
96.2157275299664
96.1363087931355
96.030963369602
96.0804768999625
96.1418255753522
96.0296762643374
96.0003531150442
96.106660217303
96.1024578265788
95.9716810938875
95.9232302092327
95.9955432848858
96.1064046033122
96.075296074687
96.0253321921624
96.0671791544231
96.1223655513509
96.0340067610182
96.0814414818675
96.2275016744702
96.0867975971132
95.8864111761676
96.0684286668213
96.1928110487803
96.1189437700911
96.0465140427119
96.0103714280934
95.9799042442595
96.0993332723643
96.1968743145821
96.112725990405
95.9049430150642
95.9056852125721
96.0831785068419
96.1286572674963
96.0491857236095
96.0155251681608
95.9841340653546
95.9232481235303
95.8502873943462
95.8399421094596
95.8048462897033
95.6922255558905
95.5612850904925
95.5236790661137
95.5249064410801
95.5470063628261
95.5419613318904
95.4703374506658
95.4201233733658
95.4193923264549
95.4828103665132
95.5180296781272
95.4635653962963
95.5194116186306
95.6219530097997
95.6284982350013
95.59291351004
95.6715210437951
95.7050802287092
95.8143464603256
95.8908092839639
95.7756194198076
95.8116542949024
95.9701216512138
95.9885765261028
95.965869769032
95.8579321328062
95.8365988896499
95.9862020904061
96.1305114963662
96.0112864493855
95.9067394461336
95.9970482621215
96.0764961844175
96.0033238841194
95.9669276772971
96.0597584883512
96.1106155946124
96.0554011984128
95.9789814661597
95.9825219940096
96.0326419143628
95.9719468907021
95.9232258354223
95.999749578603
96.1365492573369
96.1665133706737
96.0395509333549
95.8955392735419
95.9645582554533
96.0138313471937
95.9586673439227
95.9685712699277
96.0248251357199
96.0668221202688
96.059322968148
95.9996911857491
95.9499768995138
95.9579454556306
95.9782858830043
95.9673378010595
95.9559837601517
95.8492480481916
95.8338823376118
95.9112269021561
95.9614888591054
95.9745893842547
96.0138460887974
96.0437862167528
95.9974710725158
95.8935607557989
95.8676515464404
95.9334882293846
95.9663905806391
95.9914620031289
96.0503049845644
96.0345033756963
95.9917778696591
95.9788202934862
95.9666993043187
95.945365735145
96.0048874788936
96.0621383109602
96.0749481396363
96.0237912869871
96.0137710562565
96.0337606195409
96.0058133225395
95.9843221028192
96.0170157153395
96.0559945776378
96.0885961999854
96.0387238001456
95.9535471510752
95.9610681229848
96.0191326820066
95.9955092948914
96.0029247442543
95.9588710361893
95.8736602292135
95.9119345784927
95.991209987781
96.0259646295963
96.0910435808458
96.066435931763
96.0242815459606
96.0394731683461
96.0554371136379
96.085825157143
96.0837730562219
96.0380560162631
96.0295241074275
95.9933099101612
95.98276684355
95.9686663766348
95.9298866928628
95.9210602468532
96.0047110700528
96.0376983325125
95.9659321638142
95.8733230327408
95.8811811433129
96.0270301240874
96.1075428659231
96.0863309379618
96.1180711739951
96.0446317403935
95.9680488150824
95.9827882555335
95.9911889095061
95.9498708562571
95.9180679979067
95.9353755676038
95.9963603647578
95.9871067241948
95.9116990985663
95.9379897815354
96.0265390773573
96.0606541996814
96.0836086008097
96.0327875332704
95.9810581198666
95.9536661605413
95.9257205065483
95.9385747709984
95.9709899580032
95.9681405517513
95.9618355721119
96.0014401749799
96.0308091829698
96.0243340333129
96.0743810262253
96.0063210741872
95.8839307849883
95.9114625102676
96.0029650217386
96.0480137083853
96.0028658435268
95.9070449168344
95.9353696517967
95.9953182234268
95.9714737489802
95.911360672828
95.9124703229298
95.9083268056371
95.8960455979925
95.9094398810839
95.9263471681695
95.8822507168825
95.8379722636034
95.8056031626981
95.7742057626989
95.7602437573257
95.7427515539008
95.7187799527542
95.7756223243253
95.8300858265022
95.8248625518825
95.8054008099222
95.727006431225
95.6692622767409
95.6537543102689
95.585647166226
95.5267979887222
95.4865659329456
95.542273186814
95.5595196377869
95.5014107632006
95.5408632696581
95.5934241820041
95.6037537969034
95.5951266889328
95.5076968634131
95.4194575409787
95.4063207490019
95.4645722548977
95.4712369793612
95.4257790829344
95.4283408271132
95.4997478951404
95.4944359055346
95.3648340032207
95.2673787025008
95.3045010859239
95.374069494341
95.4077164397267
95.425396019325
95.4184750780329
95.3430300619985
95.2752360733198
95.2272308420988
95.2442280163007
95.3275200468517
95.4490757091369
95.5512890066372
95.5799532213476
95.5909055146808
95.665572654875
95.7164256235098
95.7330263102503
95.744077338664
95.7290656156632
95.68182790256
95.6549985418086
95.6462517695869
95.6305063280905
95.6165221682193
95.6155324550731
95.5379377252951
95.4236498426783
95.374271391848
95.2999264947389
95.211437572651
95.1889724134709
95.1188297476549
94.9828629631975
94.8812898686961
94.852877540282
94.8240508839126
94.8280978211959
94.7937836209977
94.7513035776927
94.7983606083981
94.8220229692807
94.681465446196
94.5116546163749
94.4306839247382
94.3442861943825
94.2464968427205
94.135471403597
93.9454128608271
93.792422439049
93.6608995340779
93.4662606699743
93.2769567841211
93.1296914762444
93.0264026420835
93.0175626996559
93.0610973251452
93.0598117691258
93.0744525268688
93.1669941411798
93.2781969168791
93.3906933611995
93.4986347738915
93.6247110062071
93.7784216285018
93.9797962387834
94.1988309842919
94.3863804618391
94.4739151838531
94.5525142419707
94.6597676464553
94.7480023361104
94.8875154462933
94.9820394908336
94.9839803320746
95.0139344540354
95.0219558238878
95.0086548674937
94.9952109580793
94.986686731382
94.965777395779
94.8998261958268
94.8302914714674
94.7438732115673
94.6276504595728
94.5389875554615
94.4663636464211
94.4230892175702
94.4051159493602
94.4367959433007
94.5448361347928
94.6110242588236
94.6298954737795
94.6955274336895
94.7348317519022
94.7288146158182
94.7232058518591
94.7584662813494
94.8505833474083
94.9161384230304
94.8534130698951
94.8304323135594
94.8862770991935
94.872124039028
94.8906267639653
94.9873687505712
95.009673718429
94.9634177764964
94.9683203938079
95.0309640261336
95.0679519238955
95.1203821510751
95.1374287713926
95.1207670365654
95.1309227507895
95.110411863654
95.1000835978442
95.2149167239854
95.3064105155906
95.292962491216
95.2940768363141
95.3398456827597
95.3796809728719
95.4271277173957
95.4580259966556
95.4970887649592
95.5445724065886
95.5420642398114
95.5369703645048
95.5642059910177
95.5783193428434
95.6050718962914
95.6190796484534
95.6181443480061
95.607167082157
95.5814533818634
95.5685361312743
95.5753368139047
95.5675816810136
95.5470239407908
95.5603215742692
95.5482397297947
95.4832370953454
95.4891446307604
95.5393566594516
95.5805392657016
95.6005111003819
95.6075722474694
95.6375728751831
95.6606424836565
95.6641990617435
95.6704196919315
95.6810754066691
95.7029691114807
95.7125523525031
95.7270162357216
95.7160654265264
95.6885841330956
95.6854865320493
95.7195051612261
95.7515420207335
95.7394711057312
95.7250840861077
95.7164791364884
95.7004053409656
95.7416681220673
95.7823078172333
95.7730546482463
95.7796092745295
95.8159053604471
95.7960264310104
95.7468939828009
95.7651974509046
95.7789675129309
95.7271373676717
95.7075551019438
95.7392805057276
95.7966383425821
95.8347606466558
95.798921721132
95.773005535609
95.8016543239189
95.8063146526933
95.8197195988714
95.8246049277447
95.8281683658067
95.8689691309595
95.8799845481138
95.8651524146235
95.8622193454022
95.8611063025437
95.882562728822
95.8898353031205
95.8928801823038
95.9056584719299
95.9228579625382
95.9304118910388
95.9104957681184
95.9090368683751
95.9216251743402
95.9218456126957
95.9426671759957
95.9519634264667
95.9380937347503
95.9410128885094
95.9631932068037
95.942068051701
95.9052626105579
95.9004482515873
95.9032819882206
95.908628531349
95.9019496122749
95.8717161133126
95.8869085454382
95.9388431705955
95.9696980265219
95.9386111334782
95.897533209586
95.8834540676402
95.8497545672259
95.8534034524097
95.8895292361403
95.8567937522028
95.8281888468716
95.8220889265736
95.794558006671
95.7878938757946
95.8498633190527
95.8838211722371
95.8562165400303
95.8600060195147
95.8738397897789
95.8702720821948
95.866287935707
95.8302523996837
95.8026926990798
95.7870698538823
95.8091609485967
95.8592046504811
95.8785293903392
95.8698784254621
95.893803984296
95.9364198854954
95.9574227719295
95.9507744618699
95.9266042061748
95.9280022278462
95.9239116129119
95.8995138168043
95.9373255329371
96.0097399021241
96.0191887092095
96.0156706475971
96.0523410761306
96.0483069200084
95.9941725710813
95.9856440355695
96.0131921203354
96.0156155744024
96.0260616250994
96.0451202064482
96.0685419172163
96.0868428818844
96.0946005091464
96.0648055473695
96.0519499850119
96.0628898374696
96.0834404770046
96.0981469240508
96.0280757142974
96.0106459795475
96.0548523084232
96.0414327780436
96.045889545546
96.1033917519103
96.1533103238731
96.1282892734779
96.0829241443181
96.1044597154232
96.1112072289536
96.0861708149305
96.120205950898
96.1119528947659
96.0977359020391
96.1778078102471
96.1971112174083
96.1233534235504
96.1049081368383
96.1267937223435
96.159060278092
96.1635644467393
96.1766082630429
96.1703772348653
96.1156412805133
96.1132446012157
96.1500724363896
96.1674138659802
96.1584613579261
96.1466569569327
96.1966109227219
96.2864748724648
96.2476534355374
96.1248669832624
96.0844117678701
96.1486209171497
96.2017192435392
96.2026890655943
96.2598481661092
96.2595376862926
96.2148632156179
96.1982353690318
96.2066473038403
96.2001633990852
96.2045944628188
96.299288039195
96.3257524301394
96.2694781313361
96.2853051325912
96.3202222109838
96.3075825290975
96.3039918195882
96.2808781024615
96.2342774550701
96.2471205545717
96.2831099358602
96.2844841498055
96.3069227567015
96.3344575149045
96.3008991416895
96.2960597570294
96.332431466166
96.3283356185868
96.2578463963176
96.2718804470672
96.3398233820768
96.3186404091645
96.2778111266366
96.2420530011093
96.2633058729259
96.3170541126676
96.2602638228175
96.3109935715908
96.3947197559277
96.3101666149853
96.2934744063738
96.3495523826539
96.3166039239302
96.2542725900011
96.2366556971581
96.2365852344204
96.2751204057217
96.3532562494878
96.350034721399
96.2686747280073
96.19341344264
96.2074734405459
96.2457723731084
96.2450252986941
96.25039423385
96.279315748957
96.2799709359397
96.2290274279166
96.2284840125341
96.1941812431999
96.1325212203328
96.1641118043546
96.2089293253691
96.1747198810706
96.1258378397037
96.11338717242
96.1372429026188
96.1409775864728
96.1256501949925
96.1579226534608
96.2462025184826
96.2547299496212
96.1672479811107
96.2648125582574
96.3578407681625
96.3302970447886
96.3468100621178
96.3684250606581
96.4061763309125
96.3851505731073
96.3860740130137
96.4176711825545
96.3637306950384
96.2109810710423
96.1048443792258
96.1085044092027
96.1958134139848
96.2811868577103
96.3148145226654
96.369973248903
96.4538425770476
96.4199364477832
96.3792271187307
96.4419124649203
96.3395693404817
96.1017335509694
95.9538590747668
96.0663795364829
96.2624994206086
96.2782661506597
96.176113557711
96.1766506612035
96.2552319171566
96.2500260612615
96.2373940983053
96.2785813333307
96.3333718104615
96.3593229515656
96.3169882572414
96.3058956132823
96.3882111346486
96.3946824004033
96.3191795418184
96.2746572851507
96.2174953911653
96.182506315641
96.2015001357646
96.2387737248047
96.293265450393
96.3563174176378
96.3936181936426
96.4429633877488
96.6103690965484
96.6809353985008
96.6506362672246
96.7182815539382
96.7056008013355
96.6570475026847
96.6623222762013
96.7505394228373
96.7805639500592
96.743768402371
96.8595848514133
97.0340447502116
96.9349121225548
96.8016648377592
96.915445444324
96.9846228771897
96.8553547826175
96.8430750239305
96.9392584217236
97.0738914903324
97.2267970066591
97.1743077124277
97.0287052350378
97.0502340870188
97.0274589780962
97.1009785143106
97.1804246494654
97.1430237312706
97.2228744153183
97.4299592367203
97.4767356861634
97.2891237015599
97.1661605641973
97.2327507229867
97.425244902527
97.6007222828427
97.607972668418
97.4974473273795
97.3850923813297
97.402131956522
97.5885432833239
97.5568629321118
97.3091843328651
97.3718479718452
97.6961771248336
97.7990331685163
97.8230579921549
97.7707365559046
97.6459009636756
97.4857633407555
97.4909183389474
97.7230139915803
97.9496062687734
98.2501690217586
98.3621283994516
97.9914051599901
97.7895418341451
97.9125961383365
98.0644882229715
98.0199442575933
98.0931649425348
98.1280154418683
98.2026185262358
98.787938021541
98.6888496903226
98.4065003717241
98.3580115090097
98.0326853612649
97.8900418407251
97.9182074743388
97.6576350308759
97.5201501392517
97.786588422793
97.9122786454957
97.611253179597
97.4666867600753
97.6569789815426
97.5261356076455
97.2904625116247
97.2196307032033
97.1471252519439
97.0510227395701
97.0774674070678
97.1146396289981
97.054038635573
97.0231269711728
97.0331338856543
96.9218853518191
96.7991551779379
96.869106397292
96.9336227990071
96.8913404417552
96.9363084377496
97.041065355811
96.973601613947
96.9570783475303
97.0969590656076
97.1922902123821
97.1422168069094
97.0655167952572
97.0535197254057
97.1062927231691
97.1826425849368
97.1740172453737
97.0859858291816
96.929405843387
96.9910984417226
97.0722325477994
97.0490731605065
97.1141188356091
97.1675758606554
97.250227315493
97.421812406453
97.5277307594216
97.660935848372
97.58393604211
97.6248876923944
97.8020048831846
97.7481907896781
97.6290560019598
97.673174334737
97.9020027341283
98.1362154627643
98.2359516155141
98.3722605396671
98.4785240924234
98.4983151183936
98.3503368471828
98.3186110732562
98.546146975823
98.3549316821137
98.0333676605887
98.3341188765078
98.4820842179972
98.267490831491
98.2951775343925
98.3294224095627
98.3060829881418
98.5227123829318
98.6248908653659
98.3792066870097
98.0710440991841
97.8833364698258
97.8787637484002
98.0906005919731
98.0171668408649
97.7980737685428
97.9271338263496
98.1542826147922
98.1573901951193
98.2463745120358
98.0898335874897
97.8360610592159
97.9094995366815
97.9809839466321
98.0871649350064
98.1400748590297
97.7334888472465
97.4596251973832
97.6628155387383
98.0431799420496
98.1673638627815
98.4041080154134
98.3410442675067
97.9041967518631
97.5854055615469
97.5466679353664
97.6826920912655
97.6437969722343
97.4127038158622
97.4998531611017
97.5971412551574
97.5278426174461
97.3545372554241
97.4165418330319
97.4418632231191
97.3839181494022
97.4441317233889
97.347986049139
97.2953176638978
97.3944938674706
97.3795137539092
97.4845913385945
97.5957942470462
97.6053437069281
97.459603376723
97.4019540491142
97.5019529034166
97.5386690302694
97.4685435276033
97.6127492872451
97.6045882204964
97.6092992674589
97.6281955256662
97.5901316459913
97.6152336598546
97.6341926799264
97.719812637609
97.7697860352039
97.748493964856
97.724949488958
97.7177165240977
97.7168740613607
97.6887371012789
97.7196814608378
97.7775867317374
97.7648646629374
97.7373320158427
97.8014928599767
97.7914241189479
97.7904441347217
97.7535907648382
97.7805889767273
97.8139711082422
97.8548490086115
97.8872485623802
97.9592366008392
97.8249323837977
97.6488980519516
97.7268846600697
97.7655651855826
97.7776858772959
97.7930027453492
97.7796799684502
97.8231309594971
97.8194330926959
97.8150106691238
97.7422935396547
97.6655001975707
97.6486593734225
97.6500242515255
97.4534326801162
97.5158988427338
97.5578004622885
97.4857254852593
97.4339459940758
97.3806163476127
97.3501332404861
97.3827041290623
97.2380078114399
97.2427601249737
97.2242108358223
97.2621569267778
97.1983591526354
97.1687077537239
97.2097890619566
97.2436873241743
97.2701917123286
97.2475124157891
97.182996527691
97.2290503035596
97.2498083122501
97.2520774298921
97.1976631099915
97.167338148322
97.2332312569367
97.3143299370394
97.2974191428771
97.3032350399907
97.1411099260066
97.2019047369467
97.343443200673
97.3987886973775
97.3132714438171
97.3736564243672
97.3381474116801
97.3600446318822
97.3474199450971
97.3548446698679
97.3256093475292
97.1658497238414
97.1819649804776
97.1194271758369
97.1776967106098
97.1953718970967
97.023547064767
96.9228956511921
96.8447579602965
96.5812101908999
96.4374202557542
96.2425482574862
95.8106794641423
95.1369398572322
94.1460502099653
93.0053229160384
91.4489017614083
89.7840347886283
87.7741618442012
85.4574242784884
83.8404264779959
81.8774834122782
79.4577850615012
77.4792443337908
75.5129543315663
73.659362536283
71.8807605900776
69.9737140073579
68.2278119167331
66.6648624921314
64.8247010172164
63.1294731555981
62.012176347251
61.4139203645153
61.2688231138196
61.513828358641
62.2190672020366
63.6586638572329
64.8118461884094
65.7005595865332
68.6553026750424
70.2666324177169
72.0814972728915
74.2569050230797
74.9101967879344
75.5506919106139
76.3975487736094
76.3183372243103
76.6106922718462
79.3752234826049
80.2434836071976
80.5010681596694
80.38168794412
81.1115382066647
82.5107327020228
82.5856963269236
83.1055754080389
84.734983196597
85.2687618085319
85.0192576230581
85.7617566069695
86.8882035300433
87.1847369168945
86.8060350072262
85.3952591988028
86.8653160342987
89.6991721977662
89.1770188168278
88.3216094672171
89.5310512757044
90.2601249055413
90.118153609117
89.8898261640062
89.4299807113302
89.3251578454801
90.8646363176063
91.4479641344424
91.1270349967564
90.8593900510971
91.1386415733975
91.1827837366473
91.3328317021817
91.8688148040787
91.6396155319674
90.9913799066263
91.3893085586733
91.7749494461329
91.5481789972315
91.4894811081929
91.7246798350034
92.1004031219986
92.2930005575204
92.5107965867301
92.798055266675
93.0446969557649
93.1207361838748
93.2586600345961
93.4180265571584
93.493500555148
93.4531230006014
93.4319997990035
93.2505193789523
92.9219884571822
92.3554145935482
91.7500051718084
91.0491258492118
90.8879311378238
92.0654105817769
92.6208276235908
92.4546172111314
92.8973939879942
93.609359345767
93.7173183850701
93.8300792623006
93.4550487442186
92.5635274935676
94.0123799685948
94.8072212976561
94.6693463398368
94.6808556910903
94.5241726409999
94.7243396996345
94.6491414912741
94.4206391638815
94.3549130690027
94.2543853241529
94.8536021942639
95.5087879559793
95.2638768007205
94.7836459698755
95.0103235732103
95.0681254826353
94.8262016570656
94.6469035907549
94.7600295007938
94.567952433067
94.8785291786318
95.1406626159227
95.0258117617004
95.2729517500223
95.130765270341
94.5977129498674
93.636694391787
91.7659865463999
90.494628144654
90.8866579580866
91.5564133320782
92.4041315902478
93.3874297662674
94.4182152651728
95.1748295620538
95.3045956389435
95.0758460957191
95.087690582876
95.1421213765802
95.0360161946053
94.6678217993909
94.2106070298297
93.8897200712147
93.3967132638694
92.8245661524999
92.152749198493
91.605944009548
91.8297451175726
92.0362328380081
92.1225085655152
92.2221628493005
92.4532329404214
92.1714135094576
91.5906140583869
91.1822366024813
91.6686822950276
91.705807069655
91.6355699317419
91.5826380823525
91.6984999787263
92.0622098193691
92.2561874411414
92.3167317667019
92.4118107122694
92.3444070836615
92.5159905075442
93.3160202722956
93.7263770662132
93.9947547515058
94.3897111177973
94.8213503122783
94.9535226496569
94.9612134435646
94.9245510083154
94.4164450453631
93.3775413086503
91.7412142781017
89.3016956375115
86.2681344519821
83.4297496707037
81.8997760439632
81.8310392376564
83.2469073442273
85.3769566079589
86.9310268464615
88.1758801176864
89.4844943153638
90.2494334485831
91.0132188913477
91.5325744403323
91.6301872301784
91.5548064274549
91.6794478056634
91.8624704453219
91.8889412148647
91.8985286979488
91.8583813557958
91.796439249909
91.5812443346294
91.4450010184664
91.3716953193503
91.3137614515715
91.5476016845407
92.0122999288527
92.4193882047931
92.975702598789
93.5109918171456
93.754585107786
93.7784633696929
93.6459012313272
93.2963693071758
92.6001122150562
91.3844411710815
89.4734616710455
86.8411202814508
83.9255195770502
81.4202016515087
80.0742095006839
80.6160925190014
82.6121890837013
85.2790380460922
87.9935243129949
90.2575609098486
91.7769177449834
92.6224574756533
92.9935507745573
93.1001494044863
93.0139415900568
92.8028720090354
92.55299885817
92.2520153446081
91.8680182005876
91.4359170004766
90.9603978074507
90.448915783834
89.9741786699318
89.5112896549206
88.9612937246458
88.2604876140658
87.3957571690904
86.394831155993
85.3296777262393
84.2386462044664
83.1725675730596
82.1289777401519
81.1012426096499
80.0987480526874
79.093608244487
78.0900990994811
77.1024692537769
76.0879877062101
75.0859624287213
74.1211864723779
73.1523184482014
72.126188681858
71.0357732734831
69.9291726173804
68.8437093892924
67.8307786855703
66.9416117919162
66.1996337334373
65.5888560818088
65.0716924141134
64.5680735801187
64.0051817424356
63.3816827082294
62.7111266095597
62.0458259341518
61.4474244151381
60.9247632121429
60.5103978853679
60.2744167836418
60.2761482446208
60.4985196442503
60.9302240833911
61.5311716092372
62.2459267928168
63.0049839327467
63.747262450359
64.4813763673853
65.2443534933555
66.0983865772394
67.0806298727731
68.1569560140776
69.2646148432357
70.3551696795869
71.4282642421835
72.474210490573
73.4921988791044
74.4886467265462
75.4828046945155
76.4810436450371
77.4707507280067
78.4562673408932
79.4440649273609
80.3920028261881
81.2824810929708
82.102262907471
82.8364271662783
83.4693820092521
83.9742254630853
84.3334295999075
84.5221020565539
84.5618845510987
84.5436447206789
84.5482559206648
84.7105617241784
85.1345978626972
85.826212304708
86.6802262010247
87.4870848029779
88.082790393777
88.4686995816996
88.7237778215592
88.8821799096003
88.9185073150298
88.826175148565
88.603367790877
88.2386349544899
87.7714004497382
87.2150476290354
86.5333238811291
85.6994446527224
84.6771103194644
83.4431912357716
81.9660557232986
80.2397637644058
78.331649445353
76.3746147958397
74.5328112738588
72.9427859639015
71.6201425751092
70.5094079298713
69.5564377589306
68.7321781844296
68.0781587179877
67.6940926270922
67.58387646249
67.6552356283341
67.7433870946131
67.6812687474159
67.350093251317
66.7113376270492
65.8426847602343
64.9031289881251
64.001123206299
63.2214242319248
62.5859712093364
62.0968726967794
61.7980910351298
61.668743741057
61.6482510197249
61.7078337121595
61.83769656384
62.0333126631588
62.3211699364933
62.7548584496581
63.376282373697
64.1593162658123
65.047823883655
66.0169639039665
67.0182619195693
68.0152236252179
68.9836247441418
69.9112805448381
70.8020414729095
71.6421250969332
72.423314032217
73.1091467167383
73.6875634554424
74.145042939322
74.4461002577831
74.6347718937308
74.729993987515
74.7682808036935
74.8061116531292
74.882747506538
75.0691946750514
75.3789854175464
75.7913469709439
76.320804780164
76.9339108532374
77.6234490384444
78.342969903407
78.6347541763059
77.6967091739365
75.3509696708267
72.5784816689196
70.1461747078924
67.8800548618471
66.0991384019084
65.7157936584278
66.9451240998148
68.9344348141916
70.8119805323649
72.3582786416003
73.5934694114961
74.5862090528578
75.4136872552926
76.1015209820459
76.6843096425912
77.2042802340704
77.6523010296186
78.020801052272
78.2816379765682
78.4625374499244
78.6365471065662
78.8066340457205
78.9558286853224
79.0105069821868
78.8737588531724
78.4940313833238
77.8963975403493
77.1848071110784
76.5332595799369
76.1555628829001
76.1265188795543
76.3861589114846
76.8205573046377
77.3549101235428
77.9452332304294
78.4936968556159
79.000016279743
79.4611311456822
79.8632907877847
80.2434789755674
80.6190170216114
80.9703461433802
81.2661704935035
81.5429024758122
81.8004979136657
82.0311475284766
82.2306505423597
82.423481028174
82.6271269423387
82.8322702543155
83.0239442703789
83.1995384005088
83.397502863741
83.5963197467022
83.7691304470802
83.96002539648
84.1592667870548
84.310053340154
84.4412433048658
84.5581357297996
84.6075463466644
84.5595088031734
84.464865133553
84.3149492387139
84.0607944550881
83.7907818632069
83.5596908238097
83.4018818401119
83.3626720030293
83.4023262310157
83.5231915125973
83.6613625352394
83.7927912648415
83.9110650876309
83.9358541798738
83.7484647693021
83.2728027796551
82.5078899167589
81.4501716200404
80.1213723462279
78.3568790725106
75.777693537669
73.211948559496
72.868527953961
74.6084198880096
76.4593981970656
77.7801849148858
78.6691460052964
79.1778867813771
79.4931539335147
79.6504958432132
79.6574341308801
79.5100624456638
79.2325599005525
78.8190404483827
78.3635678467209
78.1215244554917
78.2371448589641
78.6268004789013
79.0879489827777
79.559898194656
80.0426333152859
80.5516302892698
81.0591631172504
81.5459957354272
81.9883496935102
82.3605870219385
82.6884402451376
83.0081274232664
83.3238355150207
83.593976593198
83.7811154576554
83.9315110890555
84.0409819269209
84.1368220643521
84.2859893167928
84.4005220498432
84.499052867222
84.6109802154825
84.7444061114665
84.9648848241169
85.1202556655953
84.9356304264173
84.1013201405002
83.0039640380733
82.5229475108849
82.8484257806874
83.5510709746628
84.3244990114708
84.9737009061648
85.490363350409
85.983431711413
86.4220137058859
86.8307213283486
87.2225825147279
87.6633439722999
88.0323352279478
88.4614435984656
88.9328112425257
89.3689214110319
89.7754396909641
90.1444722151728
90.4727623010114
90.8175459166418
91.1581350946538
91.4883473488591
91.8230602541475
92.1846333019845
92.5395256757809
92.7004077422904
92.6151212019867
92.1473399207037
90.959731344045
88.7693675814513
85.591187140546
81.8181777838252
77.9929504474764
74.3507759625343
70.6468742974965
66.8009529555616
63.1131307219245
59.8599277673864
57.9591657304455
57.5505128249508
58.1190959849176
59.1335336834691
60.4136328100483
61.7021566185405
62.9213333493032
64.077501130922
65.1125581098719
66.0008622157827
67.0082192184289
67.958971400883
68.8905736961002
69.9412619311667
71.1360044050934
72.2121035221867
73.1984539764563
74.2053696492618
74.9022935929154
75.0665869334974
75.4021438153693
75.8159755337042
76.1312291822862
76.3692683279417
76.5897600070398
77.0984000526701
77.636622659372
77.9654628450101
78.1759247319773
78.4583501995513
79.5421661397684
79.7847677394625
79.7449178757648
79.7911526453551
79.8468998450084
80.1963026376731
80.3676506988144
80.5022165138321
80.8836998190864
80.9277564943617
