1798
3999.43349933624
650.420452594757
1
128
4
95.6302346293805
95.6016279524015
95.5884689095681
95.6132684010762
95.613588252639
95.6237320613263
95.6541487897107
95.6139589663694
95.6139232186929
95.6230725854893
95.5771705660391
95.5473186473071
95.5827954174269
95.5984539120871
95.659450948081
95.6150275254726
95.5395375926975
95.5606861111129
95.6043812464969
95.5591207608079
95.6070052158639
95.5970954909373
95.6270162374453
95.6916900634029
95.6806542619371
95.5542137540331
95.5026936912774
95.5342272495866
95.5739017969004
95.5775263345005
95.5495967372874
95.6060815567042
95.7173016466772
95.720997640538
95.6482049413467
95.4843410753356
95.5030597148201
95.5894314417158
95.634199938315
95.5811314488372
95.6083998459177
95.5767494569516
95.3708034040687
95.376523598071
95.5681841472003
95.7315604775575
95.7863927238829
95.7234352961488
95.6033243712763
95.3988476956467
95.2315680764856
95.2137081526172
95.2998905856352
95.6032907487704
95.9124103432238
95.8503524088503
95.5972334769157
95.5441688497891
95.5993277585015
95.5028213775163
95.4687942450139
95.562258486148
95.5249376882083
95.5153769473224
95.6784153212214
95.7057210829542
95.6608597872172
95.4481660005786
95.3312348563088
95.4358472141771
95.5502521294552
95.4174892923631
95.5026325674786
95.7026290614511
95.8027689368877
95.6451437609048
95.2340584241373
94.8742392197978
95.2328095573113
95.7888295806951
96.0038255628372
95.9451694867849
95.6650868770749
95.4520223455405
95.3614928600117
95.3011561113434
95.4268329417881
95.6330550927421
95.7016870302694
95.7052014783704
95.6459148948588
95.6046435391011
95.6966503452208
95.5828662202793
95.3006334432248
95.4371196794543
95.5937347059632
95.5674405085538
95.746429947648
95.9485619061563
95.8170564054504
95.564114149648
95.5366649943083
95.5997397752675
95.408525214536
95.3322249261403
95.570140083073
95.6452334975543
95.6936494311643
95.8483180190094
95.7595254831129
95.6460734836831
95.6222790910125
95.5380888002761
95.5812050189087
95.5907991815544
95.4496938181553
95.3621092086174
95.5265861015916
95.6973291960216
95.6360197109726
95.4664295351466
95.3735346698541
95.3802430963091
95.446057866904
95.6368373901775
95.7363850166682
95.5928729282327
95.5205895023887
95.5748920675766
95.491328112281
95.2796410227176
95.0563272600669
95.3256576472281
95.5917306899076
95.510596441621
95.4745447316092
95.8287527062951
95.8755284187319
95.662178268142
95.3890701845902
95.3097019938761
95.5519177879594
95.7818954867646
95.9440219733748
95.8119428167954
95.6494100554998
95.5453145337622
95.5059792496097
95.611213752526
95.7618923534672
95.8034271068081
95.608422875134
95.3179510145726
95.4342406410453
95.7624904827967
95.9199803998843
95.8305014486228
95.6600175838798
95.5780563312292
95.5550424864491
95.5122531312321
95.5251169190212
95.5310114573308
95.36639950842
95.2215872832653
95.4414696837572
95.6516199836936
95.836387521414
95.9466820789125
95.8207752900152
95.408765457794
95.1259895257061
95.2506272428912
95.6048597980086
95.4803645992015
95.3923488972673
95.6673737234568
95.7745569751136
95.7149129614744
95.5976946417642
95.4608263444283
95.3794250117762
95.3926247568778
95.3887277564407
95.1674360594575
94.8622000142496
94.904721347602
95.2422133254584
95.5917034456681
95.6906166955967
95.5806163741448
95.5293140042167
95.3954514047132
95.2766147977674
95.3643665408518
95.3352893062141
95.0183899427427
94.928736459296
95.4939118997156
95.7661824458432
95.5559747031966
95.2330066839964
95.1126135234907
95.282423672403
95.396624431039
95.3665354476465
95.2862861710815
95.102335932572
95.0594997761091
95.4379255181389
95.6376489008153
95.5150806298234
95.4287727492602
95.4765294283401
95.4611991719132
95.4820343848603
95.6517862295322
95.5435710089771
95.2217450682712
95.2182456512615
95.5101945379426
95.6798300865987
95.6883688854505
95.6311718909223
95.4846746718434
95.4174939776084
95.4359968569656
95.5543361428388
95.5395890823289
95.3111695011378
95.0660835305716
95.2613041935299
95.5521627303404
95.589948598289
95.5593301608763
95.5707358079241
95.4744228818504
95.3732768279377
95.3892331928827
95.3946395099176
95.3207160590606
95.3937077383333
95.4540237677592
95.4593640610076
95.4960078768273
95.5078120735993
95.4419907114728
95.4002150517733
95.4623442491605
95.4556897553011
95.3955291625185
95.3904103793511
95.3968242853597
95.493064145752
95.6038420493553
95.5744290370659
95.4475545325331
95.4559000925136
95.5139247183309
95.5361687476901
95.515574545353
95.5492872058679
95.601650084774
95.5755307221496
95.4901116961071
95.4533886772014
95.5389691096717
95.6751015976417
95.6093150913963
95.4941577398753
95.5735160796115
95.6328988174909
95.5014989702397
95.5815482532858
95.6369418992993
95.4760092842488
95.4275378311809
95.5879574625766
95.6627924737039
95.6823161314924
95.6589747449136
95.5582901357642
95.347732800158
95.3221698355579
95.5762056689876
95.6642909849329
95.3737602347558
95.3261290548274
95.575619329464
95.6114266180362
95.5375900994169
95.5395693957161
95.5428365147014
95.4737479346028
95.3787507129884
95.405333184085
95.3537548986194
95.2858567189658
95.2635628476976
95.1880501533882
95.217245078235
95.2689286090674
95.1787118976729
95.1172716582791
95.1292630291163
95.1300765254705
95.1556486322676
95.167268864631
95.0759142286461
95.0355872663528
95.0702963902465
95.1227194578568
95.1491327099431
95.1832278683679
95.2613384143344
95.4777093537996
95.5736712450248
95.3802764574912
95.2865232094102
95.364829070332
95.3829625813172
95.4565691338329
95.4619227714528
95.4216110712065
95.5036444001514
95.5813309917986
95.4977758585977
95.4565335755041
95.4650548655359
95.4854880276042
95.4948420956779
95.4709162674158
95.4679256544272
95.4493968653739
95.4111699925398
95.4077074662575
95.4259858831413
95.4559282489325
95.4154742321251
95.3919184690647
95.489517962965
95.6111627434157
95.5983383440713
95.4707256903348
95.3521053121583
95.3907752735011
95.4613001555069
95.468579339257
95.4750054199427
95.4917569895987
95.5021656933652
95.4740068387755
95.4540979616351
95.4558167004951
95.4334298791072
95.4462155848969
95.4371701845458
95.3943363199407
95.3356922899057
95.3265726002407
95.3666631365637
95.4189287934798
95.4531408631808
95.4912393353584
95.4980453843518
95.4347665114893
95.4018612275359
95.417051209299
95.3705094404809
95.3306615386156
95.3801118424204
95.4849244034011
95.5440152479624
95.4893523349664
95.413266855037
95.4243076631003
95.4693194021611
95.5246088767491
95.5161827111458
95.449864976939
95.3920621986275
95.4419333618952
95.4739864831664
95.4349859735408
95.4405660349373
95.4354555317795
95.4032409731209
95.4474254071845
95.4486034853302
95.4108127669312
95.4421627418375
95.4640084558913
95.3966988479835
95.3967238354904
95.4457138438578
95.4101244341939
95.3691918687842
95.4128809413206
95.4630041772852
95.5249495834379
95.4979148011492
95.411786863858
95.4322524124757
95.4894624544313
95.4805844033875
95.4460284732162
95.4087530943941
95.4254717647334
95.4252995106155
95.4152094285966
95.425090653283
95.4156626747557
95.3709217793955
95.3792895584883
95.4657224640218
95.4998473614693
95.4114926321294
95.422029288572
95.4549568972368
95.3976264394921
95.416558156359
95.4674095810707
95.3986814800445
95.3740264859076
95.3970744191547
95.4272230577602
95.4139718330349
95.3790499818261
95.4340751269972
95.4798589072322
95.4173927401843
95.3609942972589
95.4215118438582
95.4436744058097
95.4288112248258
95.4910946127524
95.4320911639799
95.311293582804
95.2981591832007
95.3068789155322
95.3844681444175
95.4714130139498
95.3824642358508
95.3384332998522
95.4257100570057
95.4528440188861
95.39616356524
95.3839436856622
95.3791097619734
95.3868700599142
95.3654826288784
95.3589834143587
95.4456479055603
95.4484464867847
95.4121917530586
95.4421424893097
95.3999433947855
95.305013513808
95.2534788707132
95.277143774612
95.2640935867824
95.2614308103048
95.3216275553743
95.3788124604101
95.3592667293774
95.3285424833312
95.3267665128855
95.3089726430477
95.2602098173504
95.223291575436
95.2119162397272
95.2433415435085
95.2909347566916
95.2892486833622
95.2660685539249
95.2470999015301
95.1898640662982
95.1655991971724
95.1415907530113
95.0461932726924
95.0203817441061
95.1073298243694
95.1088696840098
95.0804559989047
95.0887900434473
95.0616364332114
95.0585840715631
95.0801614827399
95.0383892957312
94.9730087975087
94.9453953458788
94.9733253402044
94.954498037685
94.9095835720378
94.9441876098955
94.9975698128155
94.9493560451896
94.8710755211681
94.8479533252989
94.8802513014832
94.9002747465154
94.9446585740517
94.9791843647749
94.9662063022196
94.9487622513187
94.9499614377447
94.8944365787173
94.7919472897604
94.8016814838904
94.9201146134634
95.0210217852242
95.0564917851773
95.0486584196604
95.1127813890527
95.1918237359602
95.1919670627609
95.1919103711665
95.2196470744526
95.1909977650351
95.1374113094016
95.1012282611686
95.0874560549535
95.0813106184104
95.0883660456744
95.0018664283355
94.8844122876288
94.8742585916628
94.8158429872746
94.7198969144271
94.688937184833
94.6441640528797
94.5631962589868
94.4920878460279
94.4708644035123
94.4281641155573
94.396316477883
94.3924710207185
94.3917598794444
94.3955917005973
94.3817763621346
94.2964240927444
94.2068837554955
94.1800628552148
94.0946982608544
93.9647932927414
93.8693875161338
93.756266526594
93.6596615164743
93.5579378962613
93.3860243705473
93.2169841426191
93.125781882944
93.0750980514831
93.0383700615979
92.9909330099868
92.9684543904594
93.0006148505213
93.0763589380054
93.1589993777033
93.2097736097062
93.3085968076608
93.4742378781956
93.587891880726
93.6853816920904
93.8112760863634
93.963017733741
94.0435165643927
94.1076141439374
94.2223303837814
94.3120731551662
94.3927923787179
94.4591046298206
94.4935510917525
94.5211033985479
94.5144194257223
94.493473383091
94.4610564136402
94.4375870000518
94.4228902624522
94.3609276855083
94.3266190186655
94.2963114609021
94.185534919109
94.0606145717834
94.0000574909205
93.9871965156094
93.9723587686804
94.034511720823
94.1127888844727
94.1468444717456
94.2066660755738
94.2859818252239
94.2764035043344
94.2278748984186
94.2549493029257
94.3103263180384
94.3402508378698
94.3531581964683
94.3138896225526
94.300664698738
94.3448197887493
94.3460936220557
94.3540313585278
94.4460395772006
94.4957760151044
94.4471073330129
94.4108851650162
94.4596526354403
94.5218567884387
94.5682457120691
94.5792258678521
94.57265810878
94.5711011609639
94.5443481772909
94.5262134316191
94.600752654495
94.6774803265209
94.681955832705
94.6886998738302
94.7067704731318
94.7295569265917
94.7685495036325
94.7984474908947
94.8460144073452
94.9007480476425
94.9039538425384
94.8966752983869
94.9147517602962
94.9136083108311
94.9008817404211
94.9103433975152
94.9219023393782
94.898924543413
94.8819087272837
94.8966948092967
94.908369310287
94.889440032428
94.8767164849963
94.9014661660961
94.9115516961691
94.8979038739334
94.8745972972668
94.8515344048277
94.8756435049563
94.9028910236946
94.8957963427144
94.9145492642115
94.9710964899785
94.9830789902304
94.9549044695236
94.9506399909232
94.9771387664399
95.0107409859767
95.0301186761313
95.0153096000102
94.9817214913606
94.990984630727
95.0335803309598
95.0424840179504
95.0144619142953
95.016090590073
95.0333058461078
95.0057851613472
95.018995177301
95.0451966599062
95.0328514090161
95.0709607314614
95.0949558046103
95.0643178326709
95.0470241607289
95.0334546632549
95.0149559173035
95.0141536900599
95.0259820932696
95.0424580467103
95.0777559215459
95.1119836169612
95.0874623480971
95.0524656349908
95.0760365495258
95.0777311426947
95.0956947150807
95.1244248830958
95.1178107477313
95.1042649161073
95.1252407929587
95.1255758409625
95.0981195751067
95.1231275267062
95.1670629589763
95.1563006286726
95.1311374912033
95.1258464715316
95.1105839130825
95.1316172860324
95.1836701974941
95.1980120839565
95.1887415850784
95.1953602538349
95.1952809325696
95.1850052556388
95.1938899324358
95.1911021162615
95.1420258206434
95.1246402346379
95.1554818007284
95.1350015218068
95.1244108080959
95.1590978542574
95.1584998165937
95.1562361288504
95.2018500153777
95.1924512498033
95.1498187598725
95.1427985687351
95.149300233386
95.1271772969937
95.0916646615102
95.0975791799359
95.114893972035
95.0856122278121
95.0517474464708
95.0737595859649
95.0964885975181
95.0681888662567
95.0751512437047
95.0952728474954
95.0660072145923
95.0459058917755
95.0754734478441
95.0973854949455
95.0932628341131
95.0744910200547
95.0686880147701
95.0582225980748
95.0763140376281
95.125319116237
95.1238548712083
95.091116151365
95.1092431984476
95.1607661585436
95.1827835129776
95.1393495970362
95.1096584011818
95.1390752055134
95.1418869386458
95.10666123319
95.1551217958631
95.2515611432372
95.2475345862237
95.2051362455618
95.2330506547872
95.2441375793046
95.1988804872979
95.1869523997158
95.2681822053172
95.2905296289932
95.2407501616038
95.2423075264168
95.2662568131317
95.2663661754079
95.2514712719551
95.2514053933164
95.2890957390479
95.3081110753059
95.3193434324609
95.353305111306
95.263748325302
95.1787167994946
95.2143343735174
95.2913018438033
95.3362004076021
95.3320050611078
95.3437493169372
95.3327731901403
95.3171638431687
95.3837798583734
95.3770008133844
95.2659701845753
95.2329889418244
95.226773915673
95.2650320520274
95.3528935169295
95.3549765214054
95.3099657383752
95.3074938283055
95.3393804554833
95.3619648090799
95.3693213346099
95.3765979081606
95.3503489619801
95.3183078932184
95.3274652315076
95.362466686762
95.4128263261852
95.4255383465299
95.3791758768745
95.3938874420905
95.4549977133323
95.4324603376143
95.4093467753835
95.4087785777553
95.3769625934217
95.3364737617034
95.343572493582
95.3890685330327
95.3792566898491
95.3821793531243
95.3939318648952
95.4019286925908
95.4649414538388
95.4974788565347
95.4893504991812
95.4658849023152
95.4336034428888
95.4156168845025
95.450076958377
95.4645098788119
95.4501752408332
95.4421891581098
95.4569177695538
95.4710193375332
95.4408153844944
95.3963236302888
95.3920879289097
95.4181334017096
95.4732232647437
95.5128588818569
95.5330331291016
95.5291344739777
95.4597233591612
95.4083493924751
95.4411133857677
95.4642765224717
95.4840635424268
95.4977302608948
95.505310686036
95.522602415527
95.5058821064821
95.4823283148908
95.4705939557007
95.4682821464167
95.5100507877442
95.5159891783173
95.4631861844142
95.4610524842887
95.4887578875538
95.4507800448683
95.4360189281299
95.5078221017561
95.5358197056483
95.4603988895842
95.3678040502143
95.3746198901373
95.443151964839
95.430436147455
95.375816421432
95.4080788066992
95.4383601578334
95.3987019239145
95.4089556113024
95.3765284015796
95.319933358478
95.3439450256421
95.3619255210692
95.3940704881436
95.3970627872789
95.3324474106527
95.3141890034208
95.3185334806693
95.3248029041975
95.3674086982537
95.4363875113518
95.4290686247226
95.3848566391009
95.5187628829218
95.565770412948
95.5260558520853
95.5785786359971
95.5962777032255
95.6142214649991
95.6132206903738
95.5518810947185
95.5331295637638
95.5160407441653
95.3379591942378
95.2156630868994
95.3001684570792
95.3896752371555
95.434729029813
95.4712993096338
95.4977739723929
95.5341366224153
95.4924026515311
95.4628878248227
95.5199670487744
95.4583879662342
95.2309526148569
95.0609534074023
95.1531682650176
95.350708957141
95.4297496857774
95.3923958456812
95.3804149535337
95.4087158920817
95.423787203858
95.3981165331827
95.4055344084684
95.4420953263106
95.4808429766255
95.5096862142632
95.4962354189143
95.5083033815016
95.471390866876
95.4215453647276
95.4187005769532
95.3904123927497
95.3706680268705
95.3497352442345
95.2893103844166
95.3690516617053
95.5710245630851
95.6512571201869
95.5909420555377
95.6691784016442
95.759572189765
95.7333450170405
95.782353938319
95.9118635288615
95.9386821457947
95.8757014147693
95.8396554556736
95.8059729118357
95.8367235065326
95.912513015528
96.0205204517925
96.0752345333068
96.0386229955235
95.9944267263677
95.9569389085085
95.9729041510082
96.1287987581277
96.237906550142
96.2541211999868
96.2155286198884
96.0666679642172
96.0340188893115
96.1885740666255
96.2941601388665
96.3587126010234
96.3012259160261
96.1739893276447
96.2579359006777
96.3885138405718
96.4555299695737
96.3748320260124
96.3708461061539
96.4361931909516
96.4501942273252
96.5759286239286
96.6192003637956
96.3800016864179
96.2932943371831
96.4471922162523
96.6989516829584
96.8243951977121
96.5780380227324
96.4442571426386
96.7563866515867
96.8374140207414
96.715812355291
96.7358603222317
96.885317473382
96.9842808979698
96.9527587522608
96.8016274166084
96.7738427765944
97.0452296238071
97.2316549008973
97.0651545708012
97.1420509709783
97.0548697297773
96.8759219637606
96.9132977190184
97.3307088097489
97.6022809359839
97.4653776679321
97.9782305990413
98.197474036505
97.8132715852011
97.4029593770482
96.9632273499845
96.9291878726898
97.1509531492708
96.9226267279826
96.5488813071096
96.6488355753735
96.9052238478833
96.8640968972889
96.7326072756253
96.7610720733435
96.7251160842652
96.4951159830226
96.3492841776109
96.2607359029876
96.1380365446194
96.1418228932545
96.1988748590822
96.2104453566781
96.1597648319127
96.1045535860098
96.025214538503
95.935456616854
96.060794449561
96.2373066287605
96.1284644043812
95.9940203417483
96.0893973957923
96.2182754317324
96.2358264644191
96.2416384476721
96.2424644513881
96.2192478664189
96.2651071280903
96.2807045350798
96.2324901343475
96.2767878144716
96.3241563509045
96.3035696032598
96.1206579940342
96.0627894517781
96.138181687052
96.2530614427128
96.3251172719982
96.285812003068
96.4156249971136
96.5935671359048
96.6227976873205
96.7717000567772
96.7389395230796
96.71744205482
96.9204576544613
96.966008538005
96.7231413667221
96.5798335383575
96.7734001118072
96.9653483595034
97.0428984016134
97.2430588247096
97.5768694447465
97.6500430418667
97.4389263972584
97.4006256209183
97.3360340502004
97.3095721645594
97.480917472653
97.5278860261873
97.2403993252108
97.2041494554272
97.3670487441694
97.3264253460047
97.3296975364504
97.6680806668897
97.7803536718646
97.5200914958911
97.0686112328382
96.9467155858138
97.0669773459581
97.2150492591594
97.28672169311
97.1181916258863
97.0449407300063
97.2243188772785
97.2052734903159
97.2656047239382
97.315745943945
97.1305674602904
97.1371121846984
97.28135873916
97.2379386680917
97.2874799306942
97.1982059450278
96.9653781203565
97.0458711336009
97.3702613643265
97.2761358510687
97.3152610689422
97.2151668127318
96.9191173466886
96.7404740620928
96.6843681084088
96.9220017886449
97.1001746001036
96.9175419674194
96.9187973961485
96.8753064084244
96.7644398145781
96.6421309829423
96.5722374071333
96.5710763198831
96.4736095137415
96.4802186770693
96.5115125824869
96.5119601021201
96.5842362568753
96.6852652086909
96.7198572771536
96.6492745457389
96.5920277965665
96.5328179999506
96.5790956941146
96.684628562373
96.7140605247699
96.6557364050488
96.7742200211049
96.7665285456398
96.7449763804404
96.7471100515119
96.7351578957775
96.7321819259317
96.6861736156858
96.7584404934876
96.9186287372506
96.900738056989
96.7951626512249
96.7675977177269
96.780717787963
96.7984557191576
96.8387083211097
96.7965032324226
96.7671219464156
96.8716380817401
96.9911355306676
96.9624141367649
96.9586686980664
96.8763426572749
96.8480072095356
96.9029996447531
96.9600365086242
97.0094554051163
97.0619332739642
96.9821757397443
96.9399747902045
96.9840061932905
96.9444069091007
96.9258613289091
96.990155726468
96.9865244905629
96.9149938907841
96.93258230159
97.0017275128224
96.9888066779007
96.9662994197076
96.9322167144365
96.8550920468206
96.6963766658241
96.8073253095638
96.8295878210352
96.7500962834377
96.6901746384965
96.6870724966061
96.6798417114747
96.6414382158755
96.5705882862236
96.5986001640333
96.5528433561578
96.6379661396462
96.6010898418087
96.5531419081752
96.609686115274
96.7023502661596
96.725143893319
96.6805066173378
96.5997210556449
96.6546795497332
96.7171296683732
96.7117064842531
96.6147329305835
96.6051235567725
96.7542790723121
96.8485896267083
96.7882210217167
96.7229146334545
96.6445297070789
96.8499693281279
96.9621551388331
96.9407672251867
96.9012170597476
96.9849031737631
96.9553077617846
97.0352659021124
97.0615664779141
97.0165627856291
96.9540446553544
96.9586004141635
97.0376653658447
96.9668717252068
97.0000733700116
97.0029595688627
96.9221683674784
96.8663537378831
96.761595507099
96.6008009469616
96.5487367197766
96.3562497548408
95.9713193043855
95.42653201397
94.6109467907948
93.6406149959182
92.2941209304496
90.8346262830618
89.0321162963905
86.974561799114
85.4832360381252
83.6967986467287
81.4900466444088
79.6246081794176
77.7759308232482
76.0789362867745
74.4384494614987
72.6650308515975
70.9960511622727
69.4562269217469
67.5519441298448
65.8058878191018
64.629487490639
64.0543732331696
64.0037086145641
64.3031002154644
64.9884584208349
66.2628384646797
67.2382935058534
68.1393202558996
70.6699112045032
71.9415713412105
73.5508572090661
75.3518474046472
75.8932798068439
76.5578895230326
77.361516188414
77.2818072579626
77.7030101059401
79.9915229639551
80.5738385549041
80.7816902410998
80.715221672132
81.4958295808954
82.6932552295239
82.6920383407228
83.273615512283
84.7088000949697
85.0340137976399
84.7970840133655
85.5632929603708
86.5467112809512
86.7824474086176
86.369325435396
85.1463118886789
86.9037750761451
89.1748102345003
88.43802557195
87.8294575673977
88.9985592655975
89.5332902086942
89.3514439452268
89.1734528590158
88.7920307610381
88.8662580535705
90.2833042721474
90.6368955888388
90.2763063589616
90.1189693850883
90.4045632074448
90.4103153596624
90.6455935041943
91.1149506302181
90.787111422316
90.3099599435138
90.8186821639864
91.077019145238
90.80581027364
90.7614478407753
91.0071533301562
91.3323379503699
91.489954512679
91.6943169796209
91.9471597628369
92.1728594903996
92.2795143016668
92.3976623723647
92.5107021514216
92.5996871679296
92.6039382212979
92.5925001127068
92.4341138325839
92.1597321260873
91.6981648652281
91.1485727620932
90.4874345279744
90.4606536710109
91.5736114108359
91.9033869327487
91.7041905407804
92.2328119282189
92.8019435839067
92.8639558738013
92.9849631062661
92.5434790653702
91.7967237555082
93.3446338485247
93.949754148136
93.7884213804612
93.7488007798594
93.6237762977349
93.8419712481144
93.7472461159377
93.5646955721938
93.5041635115516
93.419702677247
94.1557086040694
94.6740467623294
94.2749899787259
93.9097293656493
94.2265091438988
94.208247416989
93.9686227811522
93.9037529396471
93.9571988148173
93.7346518260957
94.1377379313366
94.3481390958922
94.2753389480544
94.5379143693512
94.3810500932966
93.8837210302421
92.9767852293786
91.3573765896589
90.4328649259371
90.7494887092755
91.2690338191662
91.9670125216401
92.8173958799548
93.8099280315443
94.4959002133338
94.5062940052184
94.2749362395498
94.3977676991078
94.4954532254479
94.4127384637652
94.1134154902097
93.7674044783373
93.4927317269899
93.0462929712476
92.5484231756754
91.9055735780825
91.4246302365909
91.6279634140858
91.7839030656067
91.8540247907677
92.0470599198215
92.3138477416618
92.0080513941223
91.423804392529
91.2034290522082
91.7420421209651
91.6986339503294
91.5616392071492
91.5059961787127
91.6559781522013
91.9559999948418
92.0829343088755
92.1634169494473
92.2459149551975
92.1526830068432
92.4012583966878
93.1581167460566
93.4593925350254
93.6681309704385
94.0634590414157
94.4515499764905
94.5476934216401
94.6036645779178
94.5457433681847
94.0691447966438
93.2570188466781
91.792990336632
89.5253152733006
86.7879223017275
84.3070141443564
82.9985969771125
82.9773398752682
84.2842945344191
86.1381743175519
87.4395491550413
88.552595715534
89.6833236323187
90.3372369731143
91.030602937077
91.4371614269134
91.4656685378866
91.4150514312673
91.5648518093094
91.7182243865985
91.7570656216452
91.8175564717451
91.8349868261662
91.7971224320026
91.613285060217
91.5365864052984
91.4953109128849
91.4250133398322
91.6542421389809
92.0632410571949
92.411981723529
92.9664389575272
93.4938398711387
93.6928754001813
93.7134835595199
93.6283650405466
93.3526206705615
92.7236488404574
91.5675450475387
89.7703095053969
87.3055687776892
84.56322013757
82.2384423038027
81.072732609966
81.7095331293201
83.6680681820957
86.1824669723112
88.6382057577979
90.6276203904791
91.9683929554954
92.7451381215325
93.1219836769016
93.2562987956498
93.2076770445544
93.0523975054925
92.8653652997468
92.6130030063308
92.2812507341765
91.9265729181403
91.5284248161783
91.078675273192
90.6646313950369
90.24530758047
89.7503186117345
89.1199110417412
88.3271013518077
87.4073918002851
86.4113935173162
85.3988518148473
84.4150813579148
83.4379779068289
82.4716467837003
81.5207581997689
80.5580947025842
79.5780844161605
78.5874625318233
77.585566640203
76.5906071988267
75.6254823669626
74.6721872499815
73.6594902978933
72.6112048346205
71.5515529542582
70.5134034103134
69.5360363168536
68.6576999964155
67.9218076824819
67.2990208539563
66.7381820737186
66.1918594590614
65.5943218324405
64.9211507558635
64.1957946711886
63.4868062058124
62.8454451206904
62.2992295880096
61.8910394593629
61.6497667872314
61.609769683583
61.7961312671054
62.1948617103694
62.7396778315386
63.4087568766646
64.1307514869154
64.8045888802097
65.4592152467404
66.138934393497
66.8926670319814
67.7785640567935
68.7571927420685
69.7660294239532
70.7625732249567
71.7370998801435
72.6828716679619
73.5974728567188
74.505903117119
75.4222990957498
76.3367676436685
77.2515815525833
78.1658412666719
79.0825309101981
79.9846282199491
80.8347497737749
81.6028222920218
82.2925271541581
82.9025731491781
83.4274862498327
83.8290322927996
84.0884598583124
84.2132866851107
84.2754778016281
84.3567929474464
84.5705235179019
84.9824661552871
85.6219116104171
86.4024712035761
87.143575244112
87.7164795682408
88.1407671815722
88.4600334334915
88.6699114118282
88.7648698234382
88.7629873775893
88.6410979635268
88.3802970366974
88.0253971671357
87.5728034203894
86.9979877082469
86.2466818762429
85.3009955282359
84.1309878433891
82.7149602256518
81.0246992404562
79.1236711079159
77.1795480106439
75.355909368668
73.7909805256862
72.5008703102276
71.4206368345363
70.4926373888806
69.7081161121988
69.110744329419
68.7820389763748
68.7386352332542
68.8273328230977
68.8520177926974
68.7383060228376
68.4092130667039
67.7868919128917
66.9443477722645
66.0466037587874
65.1754309398581
64.3669199790941
63.6915762227863
63.1915655999146
62.8525506978886
62.6589866789872
62.5841962008483
62.6279141980054
62.7335116498902
62.8757621973185
63.1033955181307
63.4765490635021
64.0111332563424
64.6990728676897
65.5113966859496
66.4015256280437
67.3094542477653
68.2090171326476
69.0837494479254
69.921657148278
70.7275436355949
71.5097656957235
72.2522709846688
72.9286978787202
73.5103105134813
73.9766118413266
74.3114572207913
74.517853640645
74.6329856838407
74.7016062343497
74.7670592701915
74.8578570484714
75.0353971128895
75.3200519579104
75.7051641277266
76.1956909408597
76.7940053238073
77.5063363226112
78.2224629760255
78.5290927444924
77.6763216277069
75.3910157348685
72.7064144017979
70.4635826544422
68.4271769316597
66.7454100440212
66.2209343232327
67.1801956430276
68.8982697740486
70.5582622963595
71.9729395751537
73.1259375811994
74.0265530760294
74.7730904363262
75.4067648621075
75.967328159677
76.478735416582
76.9220374440016
77.280991375908
77.5188478241177
77.691008372177
77.8716643509908
78.0701716206536
78.2785163933107
78.3778088542838
78.2973585513866
77.991361964163
77.4286365429469
76.734127296086
76.0920420979565
75.6898290456099
75.6151626412501
75.8395779838712
76.2342535655784
76.7025420761655
77.2087173566341
77.7026129714378
78.1719091929558
78.5871369421632
78.9508747569329
79.2985378373389
79.6306209092817
79.9398884735954
80.224188065669
80.4801208811155
80.7100936152216
80.9185955977345
81.1104587161724
81.3035830643015
81.5009794315129
81.6954207299348
81.878062821362
82.0483338890701
82.2192469426852
82.4138008339941
82.5855849091746
82.7810879934415
83.0120456500905
83.1794469111775
83.3055778201991
83.4157250904434
83.4975942707903
83.4873716107838
83.4334027051786
83.336474788976
83.1559492110869
82.9541631824588
82.7561287002837
82.6050869848254
82.555727356741
82.6029321638206
82.7269715892181
82.8843396447548
83.0265169167406
83.175178754048
83.2507801000379
83.1173427246763
82.7773818096623
82.2218371063166
81.3635425417982
80.231081358601
78.6712554255457
76.2026663109287
73.5895886437464
73.0683606160028
74.5519850561314
76.1950817494473
77.3839550741917
78.1584305244155
78.6366782528626
78.9415836614402
79.0593958365315
79.0696593788519
78.977700304878
78.6700437541969
78.1969447281223
77.69593050668
77.4407448673814
77.533569220104
77.8719303492472
78.3569362331523
78.8324487644219
79.2233207429447
79.6386628519607
80.0563252510735
80.4644416473119
80.8785521543813
81.233207058109
81.5432072948594
81.8368347592803
82.1276803875974
82.3756066772951
82.5643066876047
82.7325940121563
82.8807073578066
83.0208582568154
83.1536941985559
83.2340733038323
83.2894903274326
83.4069567224423
83.5254609380666
83.7220692438486
83.909096410637
83.7589349988419
83.0462447444971
82.0660035306894
81.6498324808753
81.9584475986783
82.5446764589147
83.2137381094392
83.79154227362
84.2649446965038
84.7243999634646
85.1948485603966
85.6062734205307
86.0026477590762
86.3658472526647
86.7435178202335
87.2018233080532
87.6557094262491
88.068855927684
88.4330056587846
88.8835237021651
89.3682183279224
89.7858450452887
90.1116298731746
90.5006038255913
90.9689499720281
91.4214865012587
91.8608104527782
92.0739049629168
92.100972380671
91.8803031694159
90.922986177187
88.9546578203788
86.135968942132
82.749376808016
78.9097403714646
75.0338775889142
71.2466111569933
67.3109298073867
63.3078925619105
59.6228623708971
57.3029856091118
56.7653451139611
57.3857902953403
58.4661836266256
59.8906148515946
61.3978904189262
62.6847983823502
63.8111467546174
64.7005219103373
65.5274051538794
66.3695215378619
67.0620949859542
68.06191284527
69.1584638436088
70.0856074003852
70.8696989111391
71.6249367891502
72.4167587979785
73.1859546150271
73.6266319937041
73.9287936566664
74.1819737543953
74.5360980411806
74.7451134092544
74.8500943989208
75.2051284530244
75.6249317970643
75.9158302434043
76.2649503709648
76.7082371717188
77.526733408263
77.4941132382946
77.5258631166377
77.7200336383891
77.977325656628
78.1854919452371
78.2287705516802
78.310095709293
78.4705835465608
78.6493843803002
