1798
3999.43349933624
650.420452594757
1
128
4
96.4162781523845
96.3154617309659
96.3315587168552
96.4142313390461
96.3923774500287
96.340278592173
96.3959031648756
96.4540079719868
96.4635560126483
96.4110672296462
96.3786045023618
96.3679551580262
96.3961233078299
96.384530245103
96.455389512444
96.4763752483994
96.3720809661214
96.3572205578421
96.4058390740816
96.3795995589124
96.3953615708864
96.3720118968702
96.3995505676573
96.4451001296579
96.4430421710825
96.3086930292721
96.287944648063
96.3557334744882
96.3229616949403
96.3251701440839
96.4291315798582
96.4603611573936
96.4691783380244
96.4765226995546
96.4607713321514
96.3583372957645
96.370403072213
96.4050728896249
96.3933326979098
96.3717373075556
96.3964221918587
96.3246790955224
96.1424757430008
96.1731970954158
96.374547269938
96.4784042576772
96.53442966848
96.5471175914212
96.4541761050725
96.259600792382
96.0919426093968
96.081662385094
96.20388228969
96.4379094628197
96.6807156091958
96.6201621770969
96.4100755050987
96.4237217131838
96.4231714025451
96.2605350185954
96.3259019902593
96.4025566604861
96.2843239694174
96.3635875274454
96.4789163106811
96.3807017720012
96.3662034620428
96.2174424169095
96.1969520725647
96.3106264523189
96.3593759013625
96.2839887151198
96.4349139556355
96.5588618602302
96.5152323393536
96.3396054304541
96.0050067358852
95.7983539365145
96.1687642306526
96.6096131539178
96.7022133085482
96.569780345901
96.4258372940345
96.3413723367666
96.1376492020291
95.9957656703573
96.2478709309448
96.5125664062337
96.4912012447402
96.5266103771358
96.5414306317727
96.4629164566125
96.4567047216864
96.2878547203721
96.088615097699
96.2629782404214
96.3187437696774
96.3396949328481
96.5371795262272
96.7164202108633
96.6398134312529
96.3920024113819
96.3438007498711
96.4093205025922
96.2062262243512
96.2062003388263
96.4537820203114
96.4407384099632
96.4047628246786
96.5337062993499
96.55484818805
96.539291665169
96.5339028794402
96.4198860559958
96.3664414339571
96.3363627369767
96.2759937963939
96.2744474727396
96.3565639713622
96.4310120655707
96.3739626878459
96.2598384088289
96.2921751086269
96.2889352287633
96.3089396016951
96.487627636854
96.498214812828
96.3076697845583
96.269305105901
96.3925929354508
96.3061521443403
96.0187357584416
95.844772669882
96.2971442385502
96.3152643325009
96.0372219554153
96.2539713775003
96.7364778284816
96.7518854980465
96.4492813377319
96.1833332495676
96.1634802674459
96.3978649964318
96.5869969490366
96.6187614067454
96.4663235905833
96.3584648608901
96.2573437729822
96.319902007625
96.4846857651209
96.5725988224374
96.5580646184858
96.3573749979848
96.106536095556
96.2058197662038
96.5897705553324
96.7863769855878
96.5495592465576
96.3418147724045
96.3748026193955
96.3672717699196
96.3256125787595
96.4582172182191
96.5067721703017
96.2362794451396
95.9789889805861
96.1585686434061
96.4062931161579
96.5850698487987
96.5904888113153
96.5232001269772
96.2538877645863
96.0257051438746
96.0890183050962
96.2423157139567
96.1219066092923
96.1968321278063
96.5314388526515
96.6327858792551
96.6036530046611
96.5394354723969
96.4111585322843
96.2493195588533
96.2368041716166
96.2695732765996
96.0328250397165
95.7583667223515
95.9067173116377
96.3113773308092
96.5440256210371
96.4731115571315
96.312767514911
96.3361693108981
96.2865889548699
96.1888902489261
96.2551162613286
96.1989606507581
95.9470461206994
96.0134123707003
96.448879827047
96.5417385169182
96.3615376444946
96.164911827428
96.0675947683016
96.1549213834396
96.2279307576489
96.2166850560482
96.1348337572522
96.0093386747767
96.0654517684421
96.3233161449812
96.3638874404155
96.2843464668273
96.3240772877899
96.3788894402812
96.3224158023996
96.3568630108151
96.4599945936081
96.3314229928786
96.1368046409525
96.1293860462737
96.3096836812025
96.4238418729392
96.3712988979026
96.3702033181592
96.397347242385
96.4039225107616
96.4143694639719
96.5225290802671
96.487597629853
96.3084694713847
96.1283868636337
96.0818351313576
96.1471364733411
96.3640343976373
96.5135089832821
96.5429613516468
96.4129803089346
96.2224922280669
96.2140515052819
96.3304151291672
96.3169072766355
96.2293800162482
96.1973578744211
96.2993894392446
96.4416258685053
96.4370855953656
96.3170435716657
96.3344080629433
96.4531374025705
96.4825682914068
96.3763734983916
96.2422314052758
96.2118343903646
96.2974155493423
96.4356032715138
96.4667477243526
96.3797945342847
96.3734490064009
96.3516095733623
96.3460423611124
96.3284681690027
96.3585282447841
96.4304610733473
96.3280297230997
96.197569867048
96.3361578943012
96.4899887172821
96.5492089957449
96.4111907926426
96.3004887346909
96.4217280926932
96.5094315311331
96.401315528957
96.3678552212029
96.4371548067456
96.4870343652194
96.4522328229194
96.4492172994644
96.4889646897187
96.4877574566216
96.3786787517978
96.3244957296721
96.3290699646549
96.4011770027979
96.5313718973863
96.5727608411353
96.3899041617511
96.3391714710688
96.5090595125131
96.5978907669306
96.5041807142855
96.4116500602203
96.3785508274868
96.3175236608006
96.244879368158
96.2343384604972
96.2022870674416
96.1889588377619
96.1111843872466
96.039850144001
96.0963498518167
96.1348962650795
96.1277256188379
96.1028017316472
96.0707272963738
96.0825593470702
96.0858195858024
96.0758765731856
96.0021800511228
95.9600186578634
96.0354165080471
96.1264044384099
96.1761463753476
96.1989645448217
96.1702893004629
96.3308413378207
96.4957303499544
96.2895110924234
96.1350309322146
96.2858186330102
96.3763025703788
96.3452630788913
96.2695401425714
96.2752807290644
96.3910004232406
96.5104202578318
96.447676164014
96.2971844880455
96.2871948864712
96.393233661044
96.3892365458918
96.3913136772284
96.4733224380944
96.4742195388805
96.3566953244634
96.2898586214602
96.3440888417252
96.3922459208477
96.3019857268681
96.2746841481089
96.3726889587868
96.4608710192961
96.4504855860584
96.361772220661
96.3302523153091
96.3964347518484
96.4186389743797
96.3782121756653
96.3486694297752
96.3626417331911
96.3539382726238
96.3056774008924
96.2619650049676
96.2762165575031
96.3692752867277
96.4031641155776
96.373073693831
96.3100681264743
96.1905072614459
96.2180844822035
96.3274100025749
96.3724019333151
96.3965742479324
96.4016908011489
96.3445398624997
96.3289154858159
96.3599150454736
96.3474143907813
96.309034939424
96.2715958155866
96.2419990983258
96.3248932720141
96.3603362645543
96.338688431171
96.3456831935082
96.3655135731386
96.3996779447771
96.4395327159284
96.4273362429712
96.3959395466302
96.3829101181069
96.3465885125938
96.3025579581981
96.3074625412347
96.359547047958
96.3938695093589
96.3538248577484
96.3683592409121
96.4200788327973
96.3790508626871
96.330020198361
96.352792625707
96.3672967474661
96.3829795190711
96.3143525685286
96.1939778560433
96.2047307990242
96.3366271131626
96.391898840506
96.4223794827145
96.3930309333619
96.3015691248703
96.2874146833431
96.3428060002684
96.3418454781255
96.3197342822505
96.3726659466054
96.3602634055618
96.2856590667517
96.3139149523319
96.3174269295381
96.2723190692442
96.2636996133884
96.3027832354992
96.3644199527698
96.3949884861517
96.3345575321972
96.313000545527
96.3515010150329
96.3913200256943
96.4555919302563
96.4662575323485
96.3256861660047
96.2790542886701
96.2978854614499
96.3141085182542
96.3461982353069
96.3293902734424
96.3185997255559
96.3393807016787
96.316018004131
96.2945547151554
96.3145862022564
96.3226692215827
96.3431523660681
96.4143403100023
96.370076636582
96.2613640960381
96.238609820629
96.2325775726942
96.2502985216058
96.2896970617862
96.2954594853901
96.3269741162469
96.3675604384004
96.3489212133062
96.3350834688297
96.3793712688637
96.3231229519324
96.210625719773
96.1894901972392
96.2754491536772
96.3600121110105
96.3376291259616
96.2947348366419
96.3578921915695
96.3605600777648
96.2761045231337
96.2186592973879
96.2089427548748
96.1675729342547
96.1326083882806
96.2163735312449
96.2815177449492
96.2598690097245
96.2589441166219
96.2024604075043
96.1506818647679
96.1521696408516
96.1191172886005
96.0959189992885
96.1683876164589
96.2199197433729
96.2071860437012
96.1721459864311
96.115497994975
96.0957318736413
96.1156217257781
96.0788712133624
96.0250588898586
96.0180861342871
96.0592246978183
96.0679219707885
96.10329857264
96.1176996787665
96.0706150614115
96.0540168336301
96.0362956645677
95.9737103831713
95.9162667865376
95.9021311837561
95.9486038459627
95.9353881748439
95.871332009623
95.9214345727135
96.0250840907551
95.9671754299733
95.8320859876546
95.8333601362867
95.9098313191155
95.8945078456897
95.8764912651445
95.9047767544745
95.9310926209601
95.9130979608959
95.8631814473046
95.8176453767745
95.8139299511886
95.8647807666701
95.9807642321167
96.0981919547414
96.1212021782339
96.0804057048576
96.0870703045551
96.1042792664495
96.1231378012275
96.1732960355104
96.1569977906378
96.0852263225917
96.0916203256457
96.1208100022584
96.0945822775636
96.0408062017738
96.0129969067294
95.9693454547091
95.9358948255544
95.9025361992728
95.8085367674662
95.7244224527172
95.7180806809598
95.728425500606
95.6789744936236
95.6126373847869
95.5884300726939
95.5032894767104
95.4396719558725
95.4573091414159
95.5109818649812
95.5740604355682
95.5578516079919
95.451215159104
95.3674411688383
95.3146670113377
95.2063167135257
95.0827838521393
95.0352044006449
94.9748822748313
94.8679041886693
94.7665270472152
94.620726778321
94.4541589345583
94.3424387462257
94.3098018798195
94.3201117865938
94.3168068143831
94.3207185195577
94.357046153595
94.4345443402355
94.5293048144358
94.5787419097129
94.6043222403421
94.6930632921381
94.8388099521861
94.9896355678265
95.0673311811192
95.1456182914883
95.2108461557048
95.2622622881594
95.3579703059634
95.4356260308158
95.4936800456301
95.5532070732823
95.5550715701988
95.5633871738941
95.5851451754357
95.580608294656
95.5368653183352
95.513920142981
95.5222926028165
95.497452247108
95.4749877967448
95.4199577546785
95.3558121492322
95.3200766241624
95.2506499535265
95.1830949959617
95.1694222202099
95.2314926823036
95.2970046916219
95.310917254201
95.3349161495258
95.3867422686657
95.3945078009145
95.3814181922587
95.4125495392368
95.4325219658971
95.460796074587
95.5099619458941
95.4709755040505
95.4415262770562
95.4400696038009
95.4170642966932
95.4720284377283
95.5546852876252
95.5727636340146
95.5844826892387
95.5927851217235
95.5738007190471
95.5778377391051
95.628013739654
95.6295129503458
95.6282075000133
95.6741682028264
95.6491637846086
95.6378716161873
95.6877577519669
95.6979592341519
95.7038495634191
95.7486257724452
95.7908506352178
95.7981669821577
95.8284301238832
95.871155231819
95.8837271744444
95.8911678878057
95.907926660369
95.921695619942
95.9362363780277
95.9386787560865
95.9413700263261
95.9253426569579
95.9103231146906
95.9116181870018
95.9018458262249
95.9012568000603
95.9378713347491
95.9412034149289
95.9153145706867
95.9423833347931
95.9456348180577
95.894838888471
95.874362606183
95.890020937103
95.9255236190087
95.9273314081506
95.9081822866594
95.9312964468899
95.9671381377788
95.9638762619637
95.963567047905
95.9911054707351
96.0148065209865
96.048568609338
96.0865769570876
96.0584904554553
95.9939522336883
95.9819095943415
96.0326680874122
96.064509241831
96.059556403849
96.0298337472435
95.9865885207505
95.9618288104233
96.0048819209666
96.0538170976259
96.0602403211269
96.0695301337976
96.0677756679242
96.0325875040609
96.0281500463577
96.0655837659232
96.0724954445578
96.027742891126
95.9999159962639
96.0049913472661
96.0443233554332
96.0847282644133
96.0679556960915
96.0284836558391
96.0550831915835
96.0939443131371
96.0973952121206
96.1034002363411
96.1108435357645
96.1242035813867
96.1306748889209
96.1056745756681
96.0832582184009
96.0855652933221
96.1112207701855
96.1447046858336
96.1439966877684
96.1227886580005
96.143421142822
96.1738670633426
96.158644170404
96.1609300256904
96.1686535158259
96.1587046158465
96.1796429738511
96.1699200294454
96.146240025262
96.1611740782948
96.1778252014159
96.1747717203485
96.1645313678776
96.1553964343453
96.1342082282933
96.1212465128984
96.1254203479711
96.135549108563
96.167662220649
96.1932720263235
96.1908354722174
96.1651473013518
96.1410606809106
96.1008310590307
96.0490139376497
96.0442636824809
96.0543075252904
96.0291270874359
96.0250345262953
96.0454018860219
96.0811155498972
96.09073045191
96.0796938014254
96.0628864132836
96.040669471883
96.0367083705014
96.0600674725107
96.0666300105128
96.0554672143105
96.0862054132391
96.0823927705199
96.011147494836
96.022139010796
96.094272894252
96.1015403282487
96.0757015823754
96.114359046368
96.1586998776509
96.1806544597866
96.1887937678242
96.1647937220863
96.1355620636736
96.1229107162226
96.1082397555897
96.126475450257
96.1591630789096
96.1645801393665
96.2043670683684
96.2286143401484
96.1986538146039
96.186850567101
96.2480832605324
96.281569257472
96.2006051553364
96.1284130317961
96.1546530937101
96.2674056350431
96.3349750235234
96.3075099465473
96.2778404724175
96.2917877352108
96.2726456342066
96.2952866747977
96.3471064005697
96.2909415892682
96.2214058211974
96.2240777071872
96.2489354316965
96.2801924373525
96.3022252075117
96.3076280611637
96.2995022864999
96.2981181311239
96.3215275108381
96.2849182365374
96.2339339602015
96.3166257059591
96.3483789207411
96.315892186667
96.3567985930881
96.3392884044705
96.2621209161565
96.2780191932972
96.2955959194769
96.2720192466135
96.309468296453
96.4028466170011
96.4215970634243
96.3236257947673
96.2515206685576
96.3388279526757
96.413504598341
96.3514206521509
96.3069377369817
96.363661689801
96.3978048557306
96.3334365009513
96.2874370018605
96.2725034983822
96.2529309226355
96.2900943968705
96.3480833401584
96.3884652402785
96.3758508454805
96.3374173307179
96.3180823604424
96.3502251975533
96.4202968001693
96.4182960981761
96.4324993535895
96.4976655376684
96.4382977522094
96.3781753573642
96.4274102931821
96.4459346832651
96.4352242447236
96.442598068445
96.4111486980387
96.3878492264886
96.3527576773027
96.3378617844262
96.3895128027527
96.4395345587386
96.4392117743825
96.4569463027985
96.4602211817292
96.4359911623869
96.3798543228602
96.3529840516695
96.3941328414748
96.4007383441292
96.3802193256739
96.39295354392
96.4555683892733
96.5267550073737
96.4647180047909
96.4230302771104
96.4869039521098
96.4466877383137
96.3862291223578
96.3993302201213
96.3718631302883
96.3906801015845
96.4469279692986
96.4005897027043
96.3542286340812
96.4158814105936
96.4538062022959
96.4250738763738
96.3852452284936
96.3843791109072
96.445531019751
96.4174668149486
96.3619300349621
96.4189940928171
96.4445845283827
96.3606222401264
96.3226961145627
96.3325659507197
96.328907177147
96.3458610449132
96.3623134969307
96.3810673171201
96.371309241061
96.3376902482148
96.304542871828
96.2761950242418
96.2821423245066
96.3542227793263
96.4509190088527
96.4508913511299
96.4048865826229
96.4337053872944
96.4486240176764
96.5039037835855
96.5647315809189
96.5668208745262
96.5996737937779
96.601364660597
96.5766090343753
96.5524455782031
96.4487427452518
96.2814351005431
96.2645439525821
96.3984034630796
96.4549105985863
96.4207154272065
96.4119009189295
96.4373189057571
96.4917736594752
96.4615618445631
96.4251465871802
96.5079239839355
96.4504213195682
96.2677287321656
96.1568355818041
96.1994113366707
96.2727587412953
96.306531183507
96.3424011321001
96.3442500810852
96.3146395783009
96.3004032744575
96.3023553268311
96.3453907748273
96.4247164613324
96.488112079314
96.4541607407963
96.4035988985226
96.4379244825809
96.4502777841063
96.4358485333709
96.3971793360609
96.2987182789351
96.2731318624481
96.3148823102773
96.3580958232883
96.3799437780047
96.4039783271262
96.474054365559
96.466175737655
96.5420305520382
96.6402392574653
96.590180206123
96.6412338998602
96.816942769911
96.9196527257674
96.8705863126106
96.8343410933734
96.7736656373133
96.664963900974
96.743695568058
96.9685103023585
96.9620691139596
96.7779229323328
96.8057196341377
96.7997208770558
96.6969749683126
96.760886684903
96.8906813130035
96.9701543049466
97.0956535259491
97.09905943303
97.0289424862062
96.978369776523
96.9316044811357
97.0889624293355
97.2819237455448
97.1772559181106
96.971051349093
97.1298477128728
97.4267096962408
97.3291568360138
97.1854709763324
97.0914240646306
97.0032985371326
97.2309533902843
97.4754308178922
97.30249911186
97.0862842305843
97.2045325862208
97.4709495230193
97.4937426494102
97.2387153885362
97.1675107687344
97.4372536628899
97.5911935783656
97.5767342727546
97.556823104923
97.6506096453484
97.634365766723
97.4615759090475
97.5435852750622
97.6221603878684
97.5812204873572
97.8266698328161
97.7825631881812
97.6447792055635
97.5936635193737
97.7545292035046
97.7989475732043
97.8850155052739
98.0776816870191
98.2445626372143
98.4954721075633
98.4078935323617
98.1699024673224
98.0927378414586
97.7372413293104
97.4232663706073
97.6361031396817
97.7319399289037
97.6386910379729
97.7335105831225
97.7595585426019
97.5255004994088
97.4146640406807
97.5341384992567
97.4082459690372
97.235717722959
97.220008413347
97.1926702928862
97.1025078668499
97.0562033929316
97.0822975443126
97.0811512384667
97.0247463633421
96.9747073470239
96.9641392322625
96.9126417610939
96.9488578300917
97.0098066429723
96.8915664227453
96.8707474135781
96.9613015956474
96.9698778927583
96.9174985270963
97.0378903921974
97.1982509061837
97.1271053755092
97.1199185880381
97.2074797018082
97.1956557238796
97.1363940829644
97.0586053155121
96.9444764621218
96.8463254014787
96.9095806963154
96.996629902835
97.0624778415471
97.1271205688823
97.1823855016057
97.2752834009348
97.2844751414391
97.3704983512242
97.7154734511221
97.6705406448791
97.4164773636279
97.519102194495
97.6367666103957
97.5888752769102
97.5696827451412
97.6134923281553
97.6609136524916
97.8482052147203
98.0887202347551
98.4579613800532
98.5078102585068
98.0358284314872
97.9848990836402
98.2627950560398
98.2351289204289
98.0150684085649
97.9441526647987
97.6486860213733
97.6276047591717
98.0012788476973
98.0399285035544
98.0239509147037
98.0747195077033
98.1340696096411
98.0308913997054
97.7495718371074
97.6175653240407
97.6092202362095
97.7036759004934
97.8174196579854
97.8154590418325
97.8937658449404
97.967877509062
97.8683180257239
97.8875963653226
97.6796013072837
97.6173146347818
97.9615497906636
97.9617352397283
97.6671934146372
97.6575680335294
97.5720243336067
97.3905683922587
97.6709885971116
98.1208558121244
98.1885465489535
98.2366442935906
97.9405158089464
97.5395190778168
97.481746239576
97.717489053566
97.9358211193728
97.8084160415993
97.5968536492204
97.5590577434469
97.4744600114965
97.5686098982098
97.6248955073381
97.465910749325
97.2326146783114
97.1613710421441
97.3039047740146
97.2656184894257
97.224975758411
97.3602364002514
97.384706330098
97.3542695688837
97.3267474044906
97.2877711152863
97.3417982566875
97.4205211198533
97.5376528109682
97.5708481428287
97.4402255051339
97.4413610504343
97.4639230376748
97.5240135885508
97.498004511171
97.4577395850618
97.503898266022
97.4874891671853
97.5430955484127
97.5919774138177
97.5670530302327
97.5779475797632
97.6410203519789
97.602064212792
97.5539290401883
97.590622954841
97.5605823297263
97.5595538084819
97.6728594677157
97.6921617348068
97.5726327593468
97.5873986220769
97.6284987098515
97.6330750999176
97.6105830201553
97.661810315995
97.7214756640117
97.7556955328615
97.641137385583
97.5318281125015
97.5697930539687
97.5895124113021
97.6068580370624
97.664583286664
97.7432793302586
97.7626773298841
97.6702179099309
97.6195677120714
97.6276580318099
97.6286102780334
97.6000155575349
97.5144837219476
97.3898118376274
97.5185928485491
97.5745818661177
97.5289785818089
97.4606591631677
97.3917725574306
97.3766853704647
97.3720006590782
97.2959120234262
97.3157093419375
97.28173806012
97.3431451780725
97.2940186844456
97.2663087138979
97.3365429964938
97.4164766233313
97.3985281450365
97.3146510924672
97.283944209913
97.3669611352903
97.4057015425316
97.3952772101298
97.2981737928585
97.2822990147973
97.409771385808
97.4905504778906
97.4306944066555
97.3820113194609
97.3358062386712
97.4765605161519
97.5381771188856
97.550630248599
97.5315567059076
97.5838418627542
97.5520725361986
97.5954645268577
97.5751397462249
97.5587550213499
97.5047026411639
97.4663952359809
97.5249528570048
97.5199507082208
97.5724192476753
97.5274559722023
97.4643724729516
97.4440812509462
97.3211916614251
97.1804521447887
97.1156878762885
96.8598695587313
96.4836617059269
96.0384688126167
95.3623018299024
94.5042887716491
93.3397104187829
92.0779589707335
90.5406128949977
88.8860980622135
87.5834649722834
85.9172813302942
84.1144278760537
82.6298781865806
81.2117972113136
79.8743114887781
78.5039550338962
77.0586864497798
75.7621225010858
74.4191697034836
72.6800542136167
71.2038118263782
70.4276478209807
70.1639408436691
70.2549982788272
70.5891756470624
71.1797755865192
72.2911099771471
73.1233010234545
73.8258149963632
75.8619710242053
76.7543868604444
78.1378909049714
79.6843060302841
80.1353353600657
80.7018802902597
81.3284122725217
81.2517486282125
81.5916892396178
83.4133242606283
83.9270777421421
84.2067271786259
84.20057759223
84.8358598583701
85.7621553783577
85.7609058079995
86.2894612588539
87.4484716713662
87.7227410719426
87.5974257883792
88.227766642406
88.9820608603844
89.1856062824147
88.9080275280599
87.979211901894
89.3498591372441
91.036089613698
90.4276437144835
90.0590158091428
91.0716289673283
91.4737669495816
91.3567126954046
91.231737638567
90.9077846292372
90.9755888691558
92.1156094414998
92.3618943772264
92.1007061253285
92.0134017806383
92.2563381614321
92.2323833237758
92.4126321613592
92.8092693792252
92.5583060773291
92.16378243647
92.5689506798595
92.7449885546417
92.5727446416425
92.5994461912585
92.7742540920677
93.0307413376722
93.1759996444098
93.3440478426752
93.5501348041684
93.726694693745
93.7939214816411
93.8872734001116
93.9720572112179
94.0178447241551
94.0046309557416
94.0150786619297
93.8976321505319
93.6628653351898
93.2564823233108
92.7818122627073
92.2331618883805
92.2534856662657
93.1680134097986
93.4481871027185
93.3276639609613
93.7553459107859
94.1815371327684
94.2271980087937
94.3361267524116
93.9591397042529
93.4387089789827
94.673621889547
95.0285793963682
94.948712274154
94.9854977965247
94.8762265157203
95.0390997443411
94.9349514219144
94.8206639157371
94.7233084173563
94.5703807885607
95.2216348530066
95.6780885445076
95.3615063107721
95.0766780493239
95.3126109095404
95.3007461636608
95.1197036116272
95.0249896364422
95.045758610977
94.8988487391127
95.2683407291532
95.3931539010287
95.3144716742003
95.5225257828842
95.3894413156189
94.9652405848604
94.1278057764305
92.7312721751628
92.0827180232187
92.4050947296153
92.8897572238676
93.5452503267672
94.2451500655948
95.0218030036381
95.5681717795083
95.5535553369851
95.3700225956409
95.4623743049828
95.5216093367363
95.466695471313
95.1996725558525
94.8801915799863
94.6465484009318
94.2835232799277
93.8663008886132
93.3050998627138
92.9489506610684
93.1451886643015
93.2693799293461
93.3506277366192
93.5035278916221
93.6726863230725
93.3998545978888
92.923665515688
92.6877865051331
93.1028474947892
93.0698412050317
93.0198381317733
92.9838249822966
93.1097999809448
93.3638963849965
93.4598872215188
93.525438403456
93.5949606448083
93.4981839367764
93.6995825696326
94.3419625664026
94.5900186007246
94.7977122775667
95.1455559895259
95.4549175591017
95.5059717741391
95.5216251947155
95.4166337002102
94.9308092291669
94.1778212953009
92.9390653132715
91.1041032366448
88.8823838002709
86.8749257775948
85.8661081473691
85.9260314735942
87.0423471598103
88.5852605203785
89.6737098465401
90.6034692499685
91.5209091093501
92.0213800264867
92.5783958691743
92.925494215186
92.9636709178836
92.9286363466139
93.0538008437583
93.1693214203339
93.2019291911876
93.2443713061251
93.2344893055693
93.189426297856
93.0317222918132
92.9539360112685
92.9022005357435
92.8679890941303
93.0800034255256
93.4273285583799
93.7118960511517
94.1785698535202
94.6226556663362
94.783815444962
94.7759501517335
94.6893093282787
94.434888174995
93.8751095049454
92.9065912109012
91.4228161548156
89.4044627849797
87.2134294519924
85.3826404713053
84.4931036121399
85.0837724073077
86.7490180977553
88.8221162383571
90.8078975955362
92.3902794697672
93.4302126312565
94.0124454355839
94.2880313071253
94.3769882220504
94.2916206778071
94.1302232417502
93.9704777808288
93.7704780629578
93.4962591425176
93.1760036305831
92.8359335952231
92.4591272426991
92.1047516343881
91.7604265776766
91.3334396626581
90.7798872108621
90.0914850197463
89.2853442680111
88.4513047216254
87.6303669804206
86.8118710596392
85.9913333232014
85.179019112736
84.3906615389162
83.6026463354177
82.7922267277662
81.9942285602963
81.1844206903189
80.3707576600137
79.5807675473208
78.7944884039757
77.9761320672084
77.1239346391298
76.2261540233763
75.3560394457422
74.5587784422566
73.8482970820135
73.264914733825
72.7859032812329
72.3518067606054
71.9107108367302
71.427475148712
70.9025106906088
70.3418531308736
69.785733667135
69.2675711620256
68.8073153663136
68.4766941354458
68.3146589955539
68.3144478886783
68.4900515849911
68.8299917353414
69.2987904380945
69.8449318035112
70.4170782119441
70.9870320176092
71.5581038098637
72.1526395363928
72.8082682799394
73.5488584282235
74.3565364189873
75.188681964263
76.009764213779
76.8182354100144
77.5975247020289
78.348460203737
79.0997413824515
79.8615761653022
80.6173971852705
81.3695819302056
82.1189483032595
82.8684400801917
83.59190334852
84.2793548816701
84.9146748662083
85.4827367625994
85.9940887111863
86.4106265602197
86.7193403311338
86.9109975357188
86.9877320023361
87.0216271431936
87.0898140411689
87.2854329391833
87.6519443911747
88.1938695354506
88.8500755531252
89.4665923059308
89.9244206471444
90.2603145216235
90.5040602952229
90.6621155016655
90.7222060395349
90.6913787134872
90.5576583348701
90.3264604215948
90.0159187076066
89.6093796700771
89.09448383151
88.4474087525142
87.6500579987146
86.6843936883765
85.5056146584262
84.1111420504831
82.5689109261023
81.0055355376387
79.5390342812816
78.2777014642367
77.2190466100629
76.3253698667148
75.5956927186439
74.9824959203129
74.4940025140346
74.2245772022168
74.1929371645732
74.2510058167812
74.267494044344
74.168610661358
73.879388384056
73.3567884165412
72.6525385409748
71.8880661925767
71.1615977352682
70.5352059472689
70.0154903719163
69.5981539191249
69.338248809776
69.2067880130626
69.163818012038
69.2100799972373
69.2981508281678
69.4250752973261
69.633275685669
69.9527475474445
70.4233045328273
71.029700033988
71.7022551456755
72.428928544767
73.1793956059906
73.933793999914
74.6724018440371
75.3763960875159
76.0446596152165
76.6633386293765
77.2629601837357
77.8051099932091
78.2292024539755
78.5675153981958
78.8294839904651
79.0058221997395
79.0939839034794
79.123700672247
79.1410508533024
79.2158494895075
79.3844117925921
79.6214756568315
79.9339788558544
80.3360230472791
80.8080319807319
81.3794818397206
81.9359387015984
82.1525004603927
81.4343025953354
79.5750660164005
77.4143419551999
75.574168630347
73.8756820719267
72.5567177338831
72.2422192168882
73.0992359520265
74.5667648242049
75.9721507384529
77.1197502051726
78.0307822221159
78.7455737738952
79.3469754185037
79.8766219139056
80.3377907441307
80.7233264902102
81.0514440032517
81.3489858527677
81.571819025075
81.7166302574783
81.8535466510588
82.0023200353516
82.1479409695385
82.2208419040991
82.1460158259215
81.8789965483103
81.4307343251059
80.8933326789595
80.3898871535722
80.075579324799
80.0364768155317
80.2412300046066
80.5749736858035
80.9643227905553
81.3689852111738
81.7556997472739
82.1614104977999
82.5301458493478
82.8314650801792
83.0973126223359
83.3502288778588
83.6044207054057
83.8521456011261
84.0619377524644
84.2395724686747
84.4036490658816
84.5683730599471
84.7231088650413
84.8674246566042
85.0194535870633
85.1882035255705
85.329084431828
85.4715950513816
85.6183369146172
85.7671649555554
85.9645487344914
86.142334519909
86.2483177104187
86.3268728873393
86.4219892604523
86.4564596557789
86.4338911506979
86.4145435688657
86.3282082626255
86.1086652832242
85.9012289592108
85.7625335338823
85.6801983834658
85.6543053787
85.6482211045808
85.7155997325399
85.8659282823707
85.9880951110807
86.0624430118189
86.1301367816484
86.0362585843917
85.6958688671713
85.1808809572145
84.4548246850819
83.5044802401468
82.1757161545287
80.1689657418067
78.179922613021
77.8230298851787
79.0418574640597
80.3938405706016
81.3566754317917
82.0060489116039
82.4048060300842
82.6367789071714
82.7411559489721
82.7268464907177
82.6187000027798
82.4373921325559
82.1074392463075
81.7169824250895
81.4831884177504
81.5590466235946
81.8482360680955
82.1841011792832
82.5450916896852
82.941319623672
83.2830588948758
83.6384726706901
83.9901377868604
84.2991388768485
84.5780574644715
84.8265994690128
85.0813318490088
85.3238163170169
85.533936890636
85.6840403488833
85.7976581758585
85.9192210098394
86.0463055455656
86.1637290592886
86.2160933601359
86.2448343844052
86.3396516954896
86.4725505433947
86.5997779257837
86.7307481445145
86.5854104017837
85.9535022877364
85.1845683722906
84.9180400539047
85.1898767731717
85.7125809974179
86.241954093197
86.6566175870941
87.0148960537524
87.4385222077745
87.8596641416211
88.2138226747909
88.5355292642277
88.8628320690326
89.1038906174511
89.4237325020913
89.8446765592998
90.2044047072386
90.5973880852471
90.9641683709884
91.1960823564589
91.4906551732398
91.8240866703644
92.2109467929
92.5791219595793
92.8668701739795
93.1878895036267
93.4653289596269
93.4654497781148
93.2068436440847
92.4240954931639
90.6886727146711
88.0852492847029
85.1729508053223
82.0273349139022
78.8521607670347
75.8206283291031
72.6477752414848
69.3480097831865
66.3601047292659
64.6621938423846
64.4186543002063
64.9797885784067
65.9110883519439
67.1138886469152
68.3423135420955
69.2867429732288
70.0838905234527
70.7757171118308
71.4061992474621
72.1403322714936
72.8690246870486
73.7755821408304
74.7670168590376
75.558374650545
76.0933534304796
76.6966198324031
77.3813581461664
77.9867213004346
78.3296997790839
78.2672807139802
78.4946432224897
78.9846289935498
79.2388625452323
79.3587402166353
79.6650602681611
79.8506478335338
79.9173926306236
80.255991004283
80.6450689329533
81.4210120203999
81.6558350621956
81.6674352252641
81.8973081413427
81.8577985042487
81.9309145125961
82.0618189414205
82.2497808351534
82.4505901407514
82.3713311527441
