1798
3999.43349933624
650.420452594757
1
128
4
95.9081585640448
95.8558447889139
95.9625219737963
96.0323909642357
95.9767727714401
95.9484742563824
96.0118673489998
95.9709797973548
95.9823643249132
96.0214366700159
95.9942623847439
95.9375772439195
95.9727415884037
96.0027854344087
96.0975133760726
96.0364740295435
95.9553396640612
95.9690497592943
96.0011529676478
95.9376291229216
95.9282689069421
95.9520316779644
96.0180652862717
96.0251030903128
95.9770479565159
95.8684816063193
95.92117693848
95.9814844395242
95.9590940832781
95.9112484258041
95.9775429140397
96.1043827889729
96.1186595392149
96.0220325938003
96.0133370272239
95.9543004165888
95.9927413682278
96.022483534514
96.0495643810055
96.0078922722739
95.9973301845946
95.9180233466398
95.7404090607899
95.7647933326097
95.9268061347113
96.1057748267097
96.1984649370045
96.0911544785373
95.9298887987369
95.7910297378205
95.6990449966979
95.6495794882069
95.7043433026205
95.9138168649327
96.1468002092029
96.1269206759913
96.0189344112605
95.9973950436277
95.9818470681648
95.8631961275518
95.8139493343116
95.9392839037179
95.9709569260386
95.9544160449557
96.0361431121243
96.0715571703209
95.9844132540997
95.6601576495667
95.6910553072255
95.8339003341616
95.9414763379944
95.8252061050333
95.9356042316057
96.0990321746348
96.1257015118121
95.9333895449764
95.6130728530368
95.3928245745314
95.6854134351967
96.1647382858513
96.3094310081143
96.2100716014513
96.0137865550763
95.8940768495785
95.7548425303997
95.5700328913851
95.7218925777303
95.9279762120216
95.932761587829
96.0052488062965
96.0744563283534
96.1001614546825
96.06558681873
95.8253438678679
95.686119437636
95.9002468568685
95.9736898438319
95.9836220711529
96.1411593354349
96.3167777415338
96.1382821538378
95.9663661887451
96.0247330416903
95.9633052271882
95.7671655426501
95.7467481108095
95.9176703620074
95.9802611520171
96.0050517239655
96.1220162635416
96.0841687347733
96.0578263490171
96.0229309300181
95.9184857152041
95.916753572471
95.8400443417942
95.8009485001585
95.8161085370665
95.8762199919878
95.9810741846594
95.9332191571586
95.8573529678744
95.8297953027028
95.7680023717701
95.8754524934874
96.0285985249464
96.0799018258961
95.9585527027547
95.8423211746215
95.8753291153495
95.8166286447021
95.6864490058826
95.5365449016012
95.8106683750296
95.8772807908114
95.8132083721451
95.8110402359407
96.1508851095862
96.13633247135
95.9668711103867
95.8683659964033
95.6928532760089
95.8300158340024
96.0335377565934
96.1792788860363
96.1041437640372
96.0001908019952
95.9308634599992
95.9190131693861
95.9908812148052
96.0487578606104
96.0365971039712
95.8806648685826
95.7013728303815
95.7662932968149
96.0115357888993
96.2345845403672
96.1504259440278
96.0015683774451
95.9313706617482
95.8592917479494
95.8253942322185
95.9281211517983
96.0319651608423
95.8653877231471
95.6751804635119
95.7914845710253
95.8932171028869
96.074384848139
96.1328419337659
96.045076276858
95.7509618107358
95.7089722746559
95.7266219706085
95.8362791995746
95.8181302825304
95.759356600509
95.8955973126018
95.9722643389897
96.0024567659394
95.9436298163812
95.7875781347378
95.731574360739
95.7727936228061
95.7459165429839
95.581970217357
95.3501308553893
95.4399395015137
95.6774685251099
95.87451640871
95.9221527000199
95.804860004159
95.8100500557607
95.7496836649821
95.6832094093001
95.7381272929484
95.6618846955813
95.5047023928314
95.4472528969813
95.7491805590822
95.9127340901672
95.7749448335634
95.5674878517883
95.4636168608573
95.5805580954168
95.7224131087168
95.7016263523432
95.5797709085144
95.5150234243553
95.5560613430104
95.7985214541589
95.8884842378672
95.8608008574025
95.8754493775086
95.9340466521761
95.8948256010847
95.8462390377319
95.934621367482
95.9183620519948
95.7238011493153
95.6492604690911
95.8740924984146
95.9991634689937
95.9272480566411
95.9204858153783
95.8494230890027
95.7854988913771
95.8757384704447
95.9987019003249
95.8618405107034
95.6514193198895
95.4516078862949
95.4943784330696
95.6947967844868
95.8914071989336
95.9289073049354
95.9238643193894
95.774684875676
95.6498124325911
95.6785162725795
95.7156754829086
95.7123899878875
95.7544549061272
95.711789779046
95.6564237194992
95.7794526619902
95.9602246806497
95.8801571792518
95.7528067260526
95.8479950085144
95.8151723385024
95.6167789442728
95.626348572675
95.6726505559539
95.6906349617751
95.8529946527305
95.9851000979101
95.8741573160444
95.8386520754896
95.9268190018794
95.9742688702799
95.8375797950693
95.8063242294831
95.8705588595422
95.7723393237511
95.7308911840607
95.899072262579
95.9874807887656
96.0052608908078
95.8431424923663
95.7011645910858
95.773819468356
95.9431708914572
95.9330532240176
95.9250655417329
95.9939386542125
95.8684952728713
95.7211146243437
95.9527200422724
96.11510928611
96.0006980241152
95.8706595281592
95.8316750117158
95.7245017183637
95.7234753263987
95.841353575465
95.923183002881
95.8363791989807
95.8026326634252
95.9273069746604
95.8886315930623
95.7561039342588
95.7446568943576
95.7328431233508
95.7444708611644
95.718431036897
95.6367914561962
95.6054888982926
95.6266667690723
95.5639294410624
95.4989783666473
95.4543261706299
95.4598084093059
95.5183971292016
95.5197052809467
95.471433998572
95.4451317829031
95.4372960248732
95.3807657158021
95.301376455918
95.3741109479373
95.4852533079737
95.5092606290898
95.4921627948174
95.5417104644591
95.5262706113194
95.5731930678697
95.6456985388309
95.5365419157566
95.4932585093914
95.6319936255542
95.7775666850353
95.8547559970123
95.750660837981
95.7613382022725
95.8483309725611
95.8243300230728
95.7608761106248
95.7528616408583
95.7621198999245
95.7944077518582
95.7457614105694
95.6894017025113
95.7272064864009
95.7893106352466
95.7356661863264
95.6652313971238
95.7058968026257
95.7606050084186
95.701855469772
95.699441340932
95.7915244250776
95.9203893211296
95.9292305320147
95.7609377792823
95.6504685652262
95.7216247338037
95.7721755935342
95.7322556300007
95.6881460858036
95.7080348582033
95.7921406935383
95.8135214197617
95.7268409496729
95.7087249143764
95.7498690107525
95.7449657555394
95.6937301701609
95.6373088856043
95.5330639003357
95.5119081553749
95.6345710926226
95.761185407102
95.7529796387227
95.7825951111107
95.8120018116507
95.7619084767241
95.7252173721072
95.7314483727438
95.7089529203174
95.6399589933264
95.6330572035714
95.7640410997411
95.8034609714401
95.7486066454958
95.7516001876044
95.7374919694919
95.6808924121166
95.6592296811009
95.6525584140049
95.7416798360336
95.7973727295825
95.764565040181
95.7481608924455
95.7612347568068
95.7408210850971
95.7159709187727
95.72821243496
95.7650245497964
95.6842038112253
95.5903931959157
95.638753061066
95.7222543749669
95.729281301304
95.7287616820394
95.6845987010843
95.6283350543792
95.6259253028422
95.7130948057344
95.745078449004
95.7703814558863
95.7748492367658
95.7233861009508
95.7234308298864
95.7521730817135
95.7385057849644
95.7097903598505
95.6806547531318
95.6643236021208
95.6207930700493
95.6356115858256
95.6888126859761
95.6917692848154
95.6642762905103
95.7107948159064
95.7410347900924
95.6651873678039
95.5918695980481
95.6593457434852
95.7385600791796
95.7368582378408
95.7626037609548
95.8174256362713
95.7187766138813
95.612546650923
95.5865122761669
95.6452779707614
95.6857299620067
95.6944531862465
95.7392380193719
95.7469274074367
95.657156098702
95.5922517566151
95.6296947258183
95.6671047303625
95.6874490203023
95.7521326114687
95.7422619457406
95.6793569021553
95.6313163291329
95.6453692597831
95.6969020621012
95.6823166206215
95.60387213435
95.5859347351064
95.6638527452665
95.7374895990931
95.7338729090625
95.7495307188289
95.7119764052512
95.627844733671
95.6077940438363
95.6321064084061
95.6703623445329
95.6846996021095
95.6233390919655
95.677851658106
95.7155948233731
95.6098448434689
95.5295943034655
95.5409224328751
95.5236518963821
95.5235829740842
95.6009010041872
95.6173188589912
95.5699077128244
95.5759106401426
95.56979220949
95.5548859053627
95.4894054626494
95.3996349975494
95.4072432359015
95.4606394896243
95.4801908936568
95.4924883411083
95.4749030195103
95.4355735305734
95.3963579777799
95.4057244367963
95.3638030368076
95.2673200625108
95.2741902622753
95.4109312670767
95.4139674078679
95.327302161801
95.3545397428746
95.4045735921749
95.4074748388477
95.3534981947066
95.267921349895
95.2066994152395
95.1775593832446
95.230852381557
95.2329344413254
95.1746789882172
95.1754057552857
95.248323950339
95.264561364254
95.1484097187684
95.0680627104577
95.1041530720772
95.107501845137
95.1615835308098
95.2295286490359
95.2190920737181
95.1603966200117
95.1268864458303
95.108634607363
95.0857395694384
95.1125613450638
95.2134865044669
95.2891951011446
95.313850859804
95.3534466315414
95.4310359466657
95.432710440631
95.3698293709956
95.3631383137367
95.3870959459699
95.3963699937485
95.4120428719764
95.3780580939682
95.3527965675567
95.3455743823257
95.3249064634921
95.249295229877
95.1603208770864
95.1145109164361
95.0200588209871
94.9469633120045
94.9883383474573
94.9570409492471
94.8384021651537
94.7659564469942
94.7671382357695
94.7238679670389
94.6555046720009
94.6410840640703
94.6413808297863
94.6364848293491
94.6231211515383
94.5457638783939
94.469103361401
94.4097100540718
94.3132270135676
94.2356347463462
94.1276948469148
93.9683179209531
93.8867657442198
93.7679585131895
93.5820535861049
93.4460067658569
93.3332095842958
93.2267513146958
93.2099987954065
93.2629945102158
93.3039686705099
93.3455290350791
93.3998529383578
93.4206757475905
93.4729621852133
93.6002006184581
93.7343093294644
93.8300290007555
93.979375515676
94.1424435013512
94.2550339471816
94.3089945771613
94.3888880040325
94.5105494017543
94.5748609178117
94.6390931898825
94.7256555146022
94.7535416510665
94.7690161330734
94.7689505330166
94.7665186497717
94.7540292541949
94.7174189727446
94.6747279615318
94.6289152027037
94.589819599723
94.5467773435179
94.4569449892419
94.362362143704
94.3080320580113
94.2915660743596
94.2629443012682
94.2650931828451
94.3405814607269
94.4107510349231
94.430224791149
94.5005458374795
94.5479361484773
94.5216546252738
94.5325784229081
94.5536397201917
94.5522585729253
94.5679329147369
94.5642467414189
94.577196824455
94.5936094526735
94.5886959455453
94.6331018369541
94.7147029250499
94.7062872140976
94.6395187783856
94.6439012509921
94.7042718227856
94.7540418442389
94.7822010233458
94.7693652219066
94.7714645681336
94.8083076451587
94.8190938652342
94.8191355664903
94.8378671597247
94.8635164155797
94.9149188172706
94.9428561960664
94.9451764307176
94.9803399602615
95.0368494701205
95.058514545768
95.0637108091406
95.0817188813039
95.0902442617422
95.091761885159
95.1118906818373
95.1239629743968
95.1443518999887
95.1502278378351
95.1320413563192
95.1239041933113
95.109926879168
95.100680696809
95.124384731268
95.1308501876702
95.1125740754622
95.1399804451646
95.141325264886
95.0878155231563
95.0829367177027
95.0768250677518
95.0732918800612
95.1093782022176
95.142546376392
95.1886223873731
95.2303367115508
95.2100262547608
95.1872932203972
95.1878460563831
95.2046833848557
95.2175166396404
95.2240485011779
95.2152118948146
95.2032728657737
95.2022799229445
95.232934939169
95.2648131946153
95.2404558307559
95.2165809666647
95.2032464007714
95.1866371367136
95.2436281449507
95.2820668556294
95.2450661056085
95.248461987856
95.2707477935218
95.2467097110911
95.2709319938303
95.3087664929499
95.2898296835173
95.2349027628276
95.1992639296934
95.2057115740338
95.251357300636
95.2814599363261
95.2775458812945
95.2723940467636
95.2827098698967
95.2765818008838
95.2814435457572
95.300100261548
95.313625366922
95.340001939199
95.3643236680917
95.362766374762
95.341714553527
95.3200317506742
95.3327212425658
95.3656384629846
95.3483431194587
95.3225091573898
95.3472290315687
95.3625658831864
95.3473938656498
95.3553351870967
95.3847878928393
95.4072946249411
95.403484727594
95.3691526117857
95.3693002305881
95.3821645898537
95.3712096254479
95.3441530607811
95.3455295580476
95.3483464680598
95.3216569857183
95.3260698599924
95.3227342120118
95.3118077820918
95.3462798908242
95.3623116943871
95.3666064487702
95.3682168949674
95.3480859837714
95.3069674213224
95.2655989225237
95.2706627996086
95.2763257944694
95.200551626039
95.1604739843523
95.2278373826421
95.2723098146883
95.2714102424762
95.2927345201124
95.2749791791321
95.2581297683813
95.2949080545267
95.3018298569957
95.2742385857914
95.3000212557132
95.3159808514857
95.2770090544606
95.2547807302565
95.2754119375921
95.3007853367869
95.3208382540511
95.3122336590441
95.3380843807401
95.3972106637239
95.4251367570055
95.3785535426894
95.3294833218602
95.3633294804665
95.3756836135457
95.3439394719199
95.3466700239614
95.4039503764413
95.4224797622972
95.4171557802551
95.4525920546322
95.4576845359917
95.4001999889407
95.3830457761335
95.4633554954106
95.4826945254656
95.413093567958
95.4331045540843
95.5139802765877
95.4830008166301
95.4300387311035
95.4756347499871
95.5066716929644
95.4691098882223
95.5190356086348
95.5735204009335
95.4942245370593
95.4107792219628
95.3950951799022
95.437893088979
95.4970472251291
95.5003297107838
95.4863560893571
95.5046132409872
95.5590244638746
95.6105256312651
95.5628377310036
95.457178718437
95.4778617208555
95.5250484187521
95.5436741551149
95.5557459602305
95.5348652272807
95.510831051833
95.4712222718817
95.4424078923486
95.4844281491696
95.5303929441845
95.5617565815518
95.5594245016425
95.5234983254523
95.4947731233007
95.5267189475869
95.5608234779263
95.5526472223643
95.5394446365723
95.5434119716608
95.5537950308086
95.5157843716495
95.4675742859516
95.4967245043787
95.5355127587011
95.5410699221065
95.544009684464
95.5952199684347
95.6248255383062
95.5767745810467
95.5140436941366
95.5678226353971
95.6433821960056
95.6065272026772
95.5796486324105
95.5506451831183
95.5422870310168
95.6244647162292
95.6833546211464
95.6673618245312
95.6390335456682
95.6379909835213
95.6208109331235
95.5986001271596
95.6065769400889
95.6233033842063
95.6231795511341
95.6130591010209
95.6122830703124
95.6542855389481
95.6927447884284
95.6376289640272
95.501497727382
95.487211287582
95.603303378709
95.643304754345
95.5973991248281
95.5435223184683
95.5585179995794
95.6449410688312
95.6564809456589
95.6415356327167
95.6312084442968
95.6145458272372
95.6504071860935
95.6879421377582
95.6527833392341
95.6328066326267
95.6616625125511
95.6400273301581
95.6190744254314
95.6232292241692
95.6058513015816
95.5828179971924
95.556943878188
95.5384219845156
95.5833273820193
95.5787206978594
95.5185869438428
95.5441971228963
95.59703492151
95.5797796456357
95.554158689149
95.4966322340177
95.4721459371141
95.5238951717714
95.5045078528507
95.4462998924781
95.4567555621695
95.4926777065715
95.4730370410799
95.4119310359028
95.4356634726789
95.5330942109941
95.5894574922662
95.5866139768452
95.5717411074571
95.6574370630874
95.6736504666218
95.6478137671881
95.6150723646862
95.611115270143
95.696004112575
95.631248982232
95.596629242256
95.6746723388429
95.6813474152349
95.5207946242876
95.4002362962123
95.4450914338454
95.5202107336704
95.5948206616826
95.612434990939
95.5951062720072
95.6102494326811
95.5734205202024
95.6005810211329
95.69125799813
95.5699945360778
95.327416124374
95.1882241846282
95.2694911304349
95.3928243261763
95.4774899916154
95.5463932485691
95.5465577107547
95.5565580031301
95.5717533321936
95.5391139501536
95.5488758163362
95.6033333945152
95.6811663831737
95.6889024181762
95.5794387836202
95.5298816457841
95.5137160773065
95.4936244356752
95.5296044908465
95.5145884083044
95.4994187122066
95.5597299473719
95.5892628698969
95.610471514333
95.6220947967853
95.6288672294355
95.7774200072054
95.9649292053736
95.9019883546445
95.7954114863116
95.938012312333
96.1166243535234
96.2141539275201
96.2095216172225
96.0748601658146
95.8841679188802
95.767188848788
95.959710688747
96.2857231002122
96.2995637526959
96.1149396835845
96.0162696312258
96.052494492585
96.140438989073
96.2412742037388
96.3234661169756
96.2980023524545
96.3652494157717
96.4152761827097
96.2786519905665
96.2569828611886
96.3953004774108
96.5064643130006
96.4287770771343
96.3129706754885
96.3325230388631
96.5303455443031
96.7247811409134
96.6105828455234
96.5342941429928
96.6495272171331
96.5663141985709
96.6026423519054
96.863548186494
96.869535850916
96.5807469027704
96.4973612020145
96.8113165561147
96.9534100541264
96.7580634500261
96.7746780992773
96.9774624718168
96.9143891159422
97.0778767320226
97.1940374289394
96.9781339377011
96.6980650775422
96.6886570418297
96.8572097680976
96.8863505721303
97.1919611947039
97.5559539510709
97.2140840210218
96.8059207654212
96.7216345894151
97.2484223919679
97.6057115705599
97.5718009170449
97.4457436780251
97.5424533638294
98.0795982063456
98.0125630112613
97.3997142038088
97.1730769704692
97.0035198330537
96.6698255337411
96.8897092736416
96.9666009458732
96.7914656449124
96.910005873524
97.1391348615468
96.8985091612763
96.7323859684711
96.9191160946558
96.842199613008
96.641052306067
96.5551712802137
96.3989546458146
96.1924094459939
96.1872841758515
96.2949940009335
96.305378432517
96.2633409257078
96.2242995179553
96.1432195139056
96.0914522463072
96.2328501093771
96.276820686441
96.1074984714701
96.0634926991457
96.1758651744466
96.309598619183
96.3395040149587
96.36895628991
96.4497715088499
96.3401663437688
96.2468525730891
96.2401807746747
96.2762998495067
96.3867290342207
96.4741455316621
96.3937308646647
96.2575128700919
96.2301711931699
96.1724701429843
96.3067919445048
96.4849656704164
96.4547732608565
96.5571036070353
96.742392250988
96.7435723392671
96.7631576637615
96.7273253611278
96.6847438746779
96.8159093701343
96.7975359022214
96.7730382854255
96.9511453885774
97.260286819061
97.308993445617
97.2427998946288
97.3903108499152
97.7145154723829
97.8010551462142
97.6132850362673
97.4453606281555
97.3740690120868
97.2621486346734
97.1986070996101
97.3513918790773
97.3619520053253
97.4002035336666
97.3939881083769
97.4636480973756
97.6136101472554
97.5837997457337
97.6304306456466
97.5642740416923
97.3537947175907
97.2667715488705
97.0844181059504
96.9657226221684
97.1580582003656
97.2465223949184
97.1383443219475
97.0974847071798
97.1862840672004
97.455970359488
97.4040604054294
97.1354561429156
97.3118218199864
97.4446640960122
97.2179132368413
97.1678346993511
97.0988948776885
97.0702911929261
97.4444560973461
97.6446325497987
97.5523891361712
97.7128910591695
97.3495951904573
96.8744813969105
96.8538920991151
96.8139310508805
96.8169241296812
97.0018533222129
96.9360023439509
96.7666534867077
96.8721998581779
96.9967538645195
96.8608541923598
96.7402520205434
96.6884784569685
96.583034514157
96.5832574980966
96.587941387311
96.62136367346
96.6689880257126
96.6346749278051
96.6582238812599
96.6467214169486
96.5635345670879
96.5524129631775
96.6147561127886
96.6969300590192
96.6858512601937
96.6067969004458
96.7063216423031
96.747836593714
96.8326035638022
96.914549022676
96.8932235234505
96.8652907765255
96.8048791820841
96.7948465227748
96.8296895974754
96.8405172153463
96.8198161730664
96.8541455590118
96.8201011264314
96.7916805903729
96.8454091406774
96.8805811363356
96.8957367925333
96.9324439111423
97.0003174860857
96.9715696928834
96.9748661726204
96.9631387678762
96.9518313537199
96.9256166750736
96.9761017875526
97.0246847142312
97.1182769128927
97.0573099794167
96.9364794257909
96.982308558352
96.9836992726999
96.9463363947021
96.9373726381295
96.9957053965353
97.0293629857065
96.9889275689813
96.996221787211
97.0044520554034
96.9854378789561
96.9227113484423
96.8754162016021
96.7288390899588
96.7905067874808
96.8102083028361
96.7973915259114
96.7622075141302
96.71816531019
96.7069888245727
96.6421733002548
96.5062680257959
96.6324653765214
96.6106226410642
96.6176865896573
96.5629785348306
96.580006756068
96.6697130592436
96.7710190193857
96.7780711576119
96.6874931827947
96.6036413541247
96.6693898994205
96.7131720782471
96.7432756811849
96.6869207511387
96.6768117525148
96.7528700582156
96.8234497709507
96.8002632998164
96.7942784508587
96.6791290871511
96.7969973484688
96.9347846655723
96.9638283557225
96.9231009337723
97.018776232767
96.9792176414595
97.0395982255075
97.0377529914492
97.0066087804932
96.9537173502875
96.9177874802518
97.0234740757345
96.964418751005
97.0156217209716
97.0474756916776
96.9530573042243
96.8622903839506
96.7862817783975
96.6353854720557
96.5771468370009
96.3389218429144
95.8774692043646
95.2889565243585
94.4781577543498
93.5124640318122
92.1336174828964
90.6174382214463
88.7533260453165
86.7059511477286
85.1746504768496
83.1710024139957
80.952490717005
79.1709519330571
77.3843244233047
75.681136775309
74.0230954701101
72.2256544599398
70.5788039429517
68.9980210428235
66.9822807558727
65.1557748966701
64.1294680474808
63.7573217582162
63.8753474736615
64.3244890159879
65.0965254638686
66.4550886355765
67.4717142532942
68.380568179623
70.943574347352
72.1632384677669
73.8153242298924
75.5800191101862
76.1406503039556
76.8448124739522
77.6105593862598
77.5654052344164
77.9430872164522
80.1296952123949
80.7310054016778
81.0546117528815
81.0620109641267
81.7767777805652
82.8775433042083
82.9412439060535
83.5177044712162
84.8354294234478
85.2220382594881
85.1108714964356
85.808747014911
86.6925714114803
86.9248226324604
86.6345473223002
85.6062054451977
87.0783351017229
89.0909982216813
88.5120401349204
87.9827702067891
89.0520307490614
89.6096133175445
89.4953708969898
89.3204610048003
88.9649831948452
88.9903435227733
90.2618429183874
90.6210094424397
90.3715116198384
90.2116792885824
90.4528145757867
90.4941701071391
90.694954635445
91.1036133294832
90.8560694294324
90.4468269222382
90.8616148328023
91.0742376051444
90.8362609042103
90.8529715148477
91.1210434444383
91.4150569048555
91.5635626737335
91.7763330737402
92.0081327230602
92.2169933308255
92.29765582941
92.4114302484645
92.5371744074431
92.6295739367688
92.6211411177692
92.5968003101676
92.4279109595591
92.1842174238394
91.7356007270182
91.2015136810171
90.5755542155338
90.5365964977183
91.5443658671718
91.901301895629
91.755600934322
92.256453254317
92.816423368088
92.8550940583895
92.9609662226237
92.5706016202894
91.8501011303504
93.2095537077591
93.7646820474243
93.6515103513274
93.682960123661
93.5769227401745
93.7983730701814
93.6589419166817
93.4730797198685
93.4369505849235
93.3507386210432
93.9476568503379
94.4555813333377
94.1285622933398
93.8000009418638
94.1126058406225
94.132559976528
93.9329149933004
93.7839489982404
93.8467450276957
93.6563830521814
94.0374139202801
94.2094343241338
94.112828170147
94.4043203368346
94.2492028770432
93.7575242385855
92.8567724127074
91.1784346363941
90.2200395668012
90.6268149538522
91.2431159916163
92.02270766311
92.861940466351
93.7621580347241
94.4162109899134
94.4481361116778
94.1967463113909
94.2551540307189
94.3510984359508
94.3285327502046
94.0396757289748
93.6534500301082
93.3773109286216
92.9439754982816
92.4439292090108
91.7791253897759
91.3542544460246
91.6449775331256
91.8183101554204
91.9006456490577
92.0314476789087
92.2181661441799
91.9048722945533
91.3995996205106
91.1090031199849
91.5671104754202
91.5442036815347
91.4914885586356
91.4523702054757
91.595523036096
91.9156583510963
92.0495551712922
92.1123701038579
92.2183980346525
92.1500381886226
92.3364343030446
93.0522473035284
93.3936742425395
93.6546222729402
94.0146210427435
94.384817443179
94.4702694935854
94.4862282252614
94.4118730598381
93.8627307870869
92.9989352226637
91.5892193791731
89.4145633663581
86.7306230973851
84.2426441290805
82.9603250174846
83.0099594017848
84.3268172272908
86.1592754776612
87.4789764060825
88.5733125602639
89.6926575671947
90.3303906245301
91.0139675548958
91.4226537907348
91.4652632445589
91.4347288664607
91.59067472203
91.7407674691867
91.7829700026587
91.8226461610908
91.7754437181676
91.7358188882449
91.571572904083
91.4940472538944
91.4482481519638
91.399173487223
91.6417564217291
92.0787383694271
92.430939531797
92.9377686814371
93.4502829351381
93.6714851314559
93.6958341732913
93.5830559877311
93.2586397724609
92.5993816697639
91.4579053869175
89.7020041142497
87.3082012642368
84.6608709937495
82.4019356405909
81.2356887762187
81.8350225117504
83.7605400071285
86.2567089298311
88.7135422472173
90.7050620989133
92.0212775587129
92.7531927272683
93.0969186073041
93.2132958881309
93.1394893713581
92.9599966976298
92.7588825991869
92.5192826145453
92.200939423759
91.8379180338095
91.4336442606121
90.987099217465
90.5720098849134
90.1573070502669
89.6467578035053
88.9741294020134
88.1533504489174
87.2170226530423
86.2130605014028
85.1922950955266
84.2026698007308
83.2213845832249
82.2535754499527
81.3070887912469
80.3595073418367
79.3900250910365
78.4067848023123
77.4250255705137
76.4626758749535
75.4955794485769
74.5107014739079
73.4801364884813
72.403380588203
71.3101144519285
70.2185372988696
69.2112348325241
68.3319352632586
67.5959296448892
66.9912171744351
66.4527374654713
65.8879755083085
65.2641978558688
64.6003811045738
63.8739053685831
63.1513583886647
62.4838178246752
61.9244450391986
61.5220227794997
61.2927471891437
61.2944078056576
61.5198344150898
61.9557068208452
62.5573213290093
63.2482303681019
63.9813724483647
64.6972861282074
65.4145653911813
66.143891274386
66.9331052091508
67.8453398300681
68.8562776998816
69.8855537935378
70.8902543427465
71.8762285360152
72.8224623225149
73.7435362001639
74.6729712067007
75.6109286756583
76.5343800901372
77.4416437286976
78.3459103216734
79.2598486756868
80.1549766739988
80.9928699594408
81.7636424647588
82.4435473756556
83.0392952352937
83.5371803334518
83.9170849692163
84.1580264521309
84.2577493445962
84.2958827181785
84.3529008497895
84.5579306063047
84.9873223229847
85.6377617915209
86.3929455769273
87.1148264863912
87.690351923398
88.1013873153783
88.3878651475665
88.5800889821599
88.6799910430652
88.6780646124766
88.5529582762362
88.2926614499679
87.9302849589818
87.4482886121885
86.8561692915035
86.1146654880337
85.1778674983136
84.012730513557
82.6124743356443
80.9610388208539
79.106453627574
77.2001012076047
75.4114925318938
73.8564695668502
72.5417582576252
71.4307645249182
70.4985737286503
69.7081836505926
69.0738859973602
68.7138629341214
68.651114827785
68.72924697829
68.7817399871657
68.6753451954401
68.3007580435486
67.6120452567123
66.7105738416257
65.7509006021612
64.8373687802868
64.0329583830126
63.3707335714114
62.8689507255809
62.5452288894886
62.3733776916789
62.3188719221559
62.3688961335417
62.4800885031659
62.6399002767977
62.8929456001495
63.3096291624132
63.8956928954403
64.6387858155618
65.4834634167462
66.3780123550466
67.3060124081848
68.2380517672619
69.1295273032368
69.9772601602376
70.8090346777229
71.5983651909408
72.3260418477404
72.971663210364
73.5170557956324
73.967628686441
74.2972404332016
74.4938156508351
74.6057758668413
74.6845563933083
74.7602919613342
74.8571253096244
75.0305766266039
75.3240249732838
75.7205884324834
76.2223220597121
76.8139511553802
77.4934843059633
78.1829584610633
78.4752665554359
77.6204100776101
75.3789881380807
72.6970719118411
70.3664935203053
68.2349312239064
66.5409209637571
66.1115977849242
67.1897901730589
69.0090560900994
70.7251844555805
72.1223468742742
73.2638466338511
74.1512688328143
74.8619333200392
75.4726330467316
76.0226488317982
76.5204220232107
76.9420425038158
77.3197298935463
77.6057808225922
77.7763843143757
77.9360413086955
78.1170029066051
78.2879740699842
78.3603724435289
78.2612034960144
77.9636887530565
77.4408992269292
76.7722400942007
76.1379767029684
75.7473009262558
75.6883043330715
75.910230232935
76.313959308416
76.7917192344898
77.2899510560619
77.7808739457956
78.2405449725923
78.6554256728861
79.0195970183055
79.3473503132824
79.6698354350755
79.9903930214742
80.2830521332005
80.5407090892627
80.7631997950498
80.9666752935768
81.1561956665318
81.3449949518207
81.5455665022005
81.7292028371676
81.8924781480059
82.0849094511584
82.2761446415096
82.4352785817749
82.6104484856353
82.8474123827779
83.0546918374285
83.2038679981605
83.3123420746651
83.4268906810476
83.4945970475338
83.4605919572822
83.4261072541853
83.3348604507341
83.1289127306386
82.8975852247077
82.7130306700264
82.5911735467036
82.5774866992481
82.6017864742095
82.7018295882791
82.8616624471865
83.0068096111825
83.1412215173648
83.1760485287129
83.0315628432725
82.6705180966452
82.0588408735907
81.1725795720375
80.024245977766
78.4298669823185
75.975941902656
73.4821736026603
73.0974538565577
74.6538940329754
76.3164594388662
77.4628026470153
78.233787211568
78.7060096383837
78.9700735192618
79.0928037235501
79.0983150435946
78.9866338665519
78.6841036010218
78.225730466789
77.7908240084931
77.5586274711951
77.6650424998676
78.0211736485146
78.458069848243
78.8969048062311
79.3025056677019
79.7180155233851
80.1946331053139
80.5840496312433
80.9218800415091
81.2614263487042
81.5983809728757
81.9115134345028
82.2138455407786
82.4380660331068
82.5936640977658
82.7479399946772
82.9155768279485
83.0504597716423
83.1423452305022
83.2528261059323
83.3242695924154
83.4220312634579
83.5688652496173
83.714929957868
83.8317349004357
83.7142859758562
83.0133631265744
82.0335668613028
81.6373323163487
81.9562540576093
82.548589325625
83.1907929532818
83.7482135404372
84.2043391727037
84.7027465351381
85.1513810001492
85.5482696799573
85.9379374401209
86.3489400807855
86.721884114097
87.0726918829209
87.4123986695572
87.855651024658
88.3414586680709
88.7302117268575
89.1183715715127
89.5784969041632
89.9697324276615
90.3635190225662
90.7904588918393
91.2228907604258
91.6067854552741
91.8399642023819
91.905718379005
91.6231050981427
90.6292948784377
88.6249524586562
85.6509460381529
82.0984060262726
78.2796562029969
74.3774886134144
70.5327098841478
66.6385551523706
62.6871103717682
59.1157077057177
56.9841576108691
56.5403386864367
57.2603290891721
58.5116274395683
59.7844809435359
61.0652847655702
62.4043629305123
63.6049635681634
64.6088685318591
65.5705324391608
66.4398422837652
67.1396296019745
67.9877465872533
69.13668658116
70.1560848272097
71.0084137287308
71.7778350130921
72.5017979786562
73.17782598296
73.6013002305106
73.9486224592044
74.3581168049751
74.7043032868958
74.7882866588369
74.9254682022048
75.3368657187858
75.7152990156986
76.0953577346023
76.3187354807031
76.5950173487906
77.3265051425654
77.6237905743791
77.716840261377
77.8080804456782
78.0007101072747
78.3541252355984
78.5439628239894
79.0322389772069
79.1829189740926
79.0067756668051
