1798
3999.43349933624
650.420452594757
1
128
4
97.1101981265383
97.0764457620799
97.0943172766185
97.1063333634141
97.0341830720671
96.9875505939676
97.0814516729532
97.0897853101424
97.1134381779126
97.1133551360661
97.0925348483596
97.0562631809543
97.0586700804033
97.0359007635583
97.1803457911136
97.1816083145639
97.0616888504073
97.0551283394553
97.0747026043305
97.0165918122085
97.0892166225212
97.0735555365433
97.1187044260099
97.1307077937966
97.0675875631627
96.9540966943396
96.9734951318978
96.9833713543339
96.9960646256244
96.9897223402777
96.9846471108485
97.0409248000177
97.1021304196265
97.114731533958
97.1832966527326
97.0904259708718
97.0856065535341
97.0534492946113
97.090786088335
97.0515803525136
97.0387245644993
96.9960400988784
96.8577028844113
96.8728552118654
96.9147837988791
97.0470954907328
97.2161864375625
97.1771270815292
97.0534432859436
96.96746963521
96.8538652154967
96.7181794195171
96.7575085547922
96.8344845691895
96.9817937768219
97.0437301217109
97.0766768863587
97.0912503052676
97.0238814992336
97.0373498516106
96.9265163611489
96.8353508503638
96.9575692758697
96.9628452740099
96.9256135248234
97.0189579237447
97.0577161730294
96.8284268002773
96.9622085498789
96.8669172098555
96.8946030834962
96.7861760360967
96.9296229583884
97.0766032249217
97.1009220304562
96.9774218725919
96.7935285309306
96.6784319514497
96.6491759111687
96.9180721706737
97.0909231861656
97.1018166221797
97.045829777737
96.9756972804856
96.9330971632319
96.8809149087387
96.842088368476
96.8056206328944
96.8618304250347
96.9898262350476
97.0031471473744
97.0402554804227
97.0399023469135
96.9088943683233
96.9277855363365
96.873619207871
96.8276111935
97.02195683468
97.0443275519134
97.1431353046764
97.037879608349
96.9926230827861
97.1251290207465
97.0273243927073
96.9685433393271
96.9807024712151
96.925590625966
96.9822095156036
96.9748635877008
97.0904465663504
97.1117821075898
97.1330046876272
97.1579742537446
97.0382025366063
97.0106199250064
96.9463920085291
96.9462655728075
96.951347336313
96.9566325289321
97.0488900495261
97.0360797632895
97.0636736691015
97.0613923116639
96.8561443595008
96.8947848126754
97.0288534766287
97.1494533737325
97.13131591165
97.0390198412741
96.9936150591438
96.913037642528
96.8495565348002
96.7403191652388
96.9497794004339
96.7760527071452
96.8132276827909
96.7454144675496
96.9222688176131
96.9655902266813
96.9578424931581
97.0026116187226
96.8265282003783
96.9208442620725
96.9312258363467
97.0569022367959
97.0755523661792
97.0303164108011
97.0185072137641
96.8996792302435
96.9137248271935
97.061011051662
97.1173216690993
96.9968387725745
96.8223035772505
96.8961508798482
97.046293257411
97.1125049800952
96.9939892993482
96.9640544437224
96.9633763907936
96.8914357790225
96.9407527379178
97.0702501898973
97.0848411953295
96.9276451407355
96.8754175576216
96.8976098884831
96.8635597885282
97.0727558132727
97.1396166606124
97.1008503627982
96.8074895604588
96.9531574002795
96.9673233649121
96.8187608613994
96.7686775721255
96.6951600538521
96.8296388716779
96.9119463725477
96.952188062616
97.0192706605458
96.9598469866313
96.9905572893744
97.0594334890734
96.8298566564392
96.6634533500725
96.5630731584353
96.6150302433124
96.6459518719154
96.6750006685232
96.7982224897675
96.8115109552941
96.9076524810827
96.9255710997077
96.900575770233
96.9060400341486
96.8277852705581
96.8083825691576
96.6931614125048
96.8357378208756
96.9454077332908
96.8579235816819
96.8091026804714
96.7753019628504
96.7369635305019
96.7947681891971
96.8156837841558
96.7477853126531
96.6803950830551
96.5523854127135
96.6803037890593
96.8517276811484
96.9320819808647
96.9828572012179
97.0290125320525
96.9852334466005
96.9921398030319
97.0509341520772
96.9885263803948
96.8809689719172
96.7933181623033
96.8133887411594
96.9346327227979
96.9590824185491
96.9402235351667
96.9385385781188
97.0668354853461
97.1412403948278
97.2012864746657
97.0601673734824
96.8631357852508
96.6431482006001
96.5526077739784
96.6388657353512
96.8163676666334
96.9344478523436
97.09236929519
97.0990319829689
97.0050706861819
96.902797016843
96.8393660016482
96.7730053343023
96.8792746699728
97.0308322912904
97.0057328381827
96.9894196271819
96.9786569849819
96.894176082168
96.9580202442528
97.0328850270518
96.9512302158047
96.8943733368858
96.8911972770315
96.8307045535408
96.808847917766
96.927263192332
97.0863130655541
97.0191566079824
96.931376798027
96.9544480845802
97.0646075412123
97.0555937932926
97.0649610600066
97.0122265345689
96.8600998005263
96.8859180704721
96.9967584922106
97.0091007170563
97.021336318435
96.9193863339381
96.940832319266
97.0685441500779
97.1248443247172
97.0758315228534
97.0748543263681
97.0423731184198
96.9447669306376
96.829181042361
96.9930713043501
97.1331186813899
97.0753405109605
97.0504403388875
97.0672504739584
96.9491933087299
96.9100970777641
96.9707422438841
97.0292654474433
96.9212715437243
96.8803141945194
96.9749025894007
96.9711747955186
96.9038399009988
96.914701596475
96.9064391287345
96.8654652149601
96.8037404763581
96.8076614750305
96.785049871177
96.780118761276
96.7209905882809
96.6086343554464
96.6573513590509
96.7623554215427
96.6925514562224
96.5987245706408
96.573162856801
96.6117884952762
96.6578614546521
96.6503055387958
96.6096956048699
96.5869688486332
96.6361255529462
96.7749677350666
96.8274855974162
96.8112736205075
96.7740554065637
96.8386536217934
96.9180194241976
96.8753368409341
96.8129588143569
96.8736840342954
96.8921210098415
96.9045741011327
96.9037778900312
96.9411057139628
96.9892828442151
97.0499607733724
97.0030244131372
96.910488110175
96.9092111321296
96.9966434954027
96.9929693298341
96.9448648648958
96.9377342673073
97.009809942817
97.0135543640405
96.9325105764805
96.9264456417357
96.9675521016383
96.8948542441594
96.8146875424915
96.8303823247545
96.9210029748557
96.9779297331792
96.9763317566436
96.9347980296949
96.9528893165789
96.9386158463111
96.9288459842544
96.9661065005004
96.9567644203646
96.9019705644355
96.9338129038041
97.0105229629766
97.0100240500892
97.0319352950818
97.064266892656
96.9456152387008
96.8110968236234
96.7065415764044
96.8167112810989
96.9701501462048
96.9610682364503
96.9393760582994
97.0073838040933
97.0155026611136
96.938761237698
96.8912727053745
96.9190977991113
96.893744792117
96.8361236134032
96.8985028398432
97.054860383159
97.0294557018038
96.946606691841
96.9435164472636
96.9038630756719
96.8964869887412
97.0152729543561
97.0125343878301
96.9495188052677
96.9345341344791
96.9491046042158
96.9446029222131
96.9410739943098
96.9595997399074
96.9873743392235
96.9607721210527
96.9540858145649
96.9659219731044
96.9201846597463
96.8986120611809
96.9508422251109
96.9137881206544
96.9357197497754
96.9426886627656
96.8891144832327
96.8484987893022
96.8883812946622
96.9579063974111
97.0265426112432
97.0342852772092
96.9741924176738
96.9757008649603
97.0148239624328
96.9629299270401
96.9101998705965
96.8809197660205
96.8764367747998
96.8792849479387
96.9510791084133
96.9938830187991
96.934218223268
96.8437416424677
96.8522547904628
96.9405902383643
96.9586225510473
96.8659136423685
96.8532352357448
96.8866927744518
96.9208913994527
96.9833831452216
97.0319242794304
96.922639400433
96.8438846979594
96.8274172629327
96.8480485940191
96.8828375419091
96.920115995042
96.9485537352311
96.9456274938307
96.8958792641382
96.8247394576501
96.867225114308
96.9278524562199
96.9058068254272
96.9878654284534
97.0004395895408
96.8655000672214
96.7609244337897
96.7556507987827
96.8694831295567
96.9476577461407
96.8551373776747
96.8345290256511
96.9049707523511
96.9243906633971
96.8902695406087
96.901122280043
96.8578868440205
96.8328893744964
96.8488914715703
96.8772589909518
96.9133852551559
96.879617754861
96.8127794431815
96.8611373135601
96.8926396272502
96.8411515830121
96.7807995287515
96.7887526243399
96.7843431365858
96.7479268476136
96.7850298328225
96.8343459223295
96.7949762283041
96.8046982575414
96.7691532327203
96.7156213081274
96.7008786668997
96.6221173875403
96.5899953431716
96.6851975696623
96.7282258696146
96.6833454251481
96.6614226020551
96.6791652445609
96.6594650439153
96.6417182884341
96.6139644815521
96.5458166029357
96.530399298864
96.6226527206112
96.6234566763878
96.5800921972934
96.579792672512
96.5990884695904
96.6352238923329
96.6075450702569
96.5062973016914
96.4562283573632
96.4320705960765
96.4957420800872
96.5468095596301
96.4610482828379
96.4135240834419
96.5084571276007
96.5148826405548
96.4082894614881
96.3832574543104
96.4427557833918
96.4198138781202
96.3925978699843
96.3944349023518
96.4056164749782
96.3890590512862
96.3802093608856
96.4097919087343
96.438827744193
96.4431400758836
96.515447128086
96.606955471122
96.6089106999694
96.5956213623482
96.6617757642992
96.6946467117847
96.6794426440709
96.6900201250177
96.6864702322218
96.6509836128335
96.6486593483817
96.6604450230161
96.6524361818905
96.5749904077621
96.5285178266808
96.4948071071355
96.4378653735471
96.3827254388802
96.3126166033461
96.2633686821642
96.2639665463426
96.2232777971262
96.1595588987674
96.1211964314125
96.0928342119652
96.0571269438773
96.0544267662403
96.0375001484371
96.0048778509431
95.9777785919514
95.9634199006861
95.9420021344222
95.8771446946755
95.7970067737807
95.7202079053891
95.6307778137644
95.5366237570509
95.4316080937407
95.3652679261392
95.2538565747267
95.0836011426333
94.9528661540822
94.9045845320841
94.8939172354247
94.8709281214003
94.8335053580427
94.8582222324463
94.897973990209
94.9522653303227
95.0221252869503
95.0858887645049
95.1558052530067
95.2664606727745
95.4109599938222
95.5733570922604
95.6913755017612
95.770840331596
95.805670960678
95.873834249561
95.9811289155963
96.0700707494721
96.127203462072
96.1674940373039
96.171337961249
96.1777126457272
96.2050034770657
96.2194095307927
96.1885584846997
96.1739488485244
96.1461402516474
96.0668045133898
96.0183419874821
95.9636367648339
95.8860999927144
95.8459081040488
95.7984877173859
95.7618022645853
95.7287398387834
95.7589749629238
95.8459511589275
95.8867779156677
95.9172892742032
95.9846548439595
95.9776585952631
95.922938963633
95.9340227993412
95.9850549185959
95.9948961068647
95.9923685744971
95.9755964257433
95.9999208517111
96.0382464191683
96.0086434062448
96.0079343333884
96.0961349014593
96.1093824933288
96.0652230355132
96.0762176294094
96.1426387235448
96.1828043918007
96.2277010391492
96.2443605527678
96.217723688361
96.228372814439
96.2292224256552
96.2024073779165
96.2311693370903
96.3004897435375
96.3471176856287
96.3492901148529
96.3360706730911
96.3431259725079
96.3870578998265
96.4157174016044
96.4469504709224
96.4674945701123
96.4383849527295
96.4000838371617
96.4248504041413
96.4693957848972
96.4747124392766
96.4458534004324
96.4364525678417
96.4146402829254
96.419370967
96.4649370930982
96.4772575573304
96.4712971588936
96.4513622074853
96.4287360804323
96.4316166183211
96.4066613342049
96.4002811908264
96.4233481378034
96.4459306506271
96.4270142201091
96.4060953100768
96.4483692722423
96.5324371469379
96.5337053726789
96.4972753606774
96.4919920858573
96.4947435589565
96.5209517056056
96.5652661457756
96.539895790602
96.5002724452811
96.5221471849552
96.5553150791595
96.5432046075062
96.5207826000697
96.5508277985151
96.5594581491297
96.5112610129357
96.5237020299597
96.5606755944783
96.5616307445687
96.5644729243532
96.6043357874598
96.6016682786556
96.5520306287489
96.5522014183069
96.5735450222143
96.5463190587791
96.5084550568988
96.5074977208072
96.5689080210917
96.6259532485267
96.6027798178196
96.5711066842411
96.6041373014937
96.6012589163859
96.5759881454383
96.5973913377691
96.6318775592608
96.6358366617833
96.6244161304203
96.6125448633154
96.6380934214317
96.6391349660465
96.6103995697344
96.612338779434
96.6366031635841
96.646006013275
96.6386952566572
96.6267661733078
96.621284474665
96.6449364117166
96.6811979764674
96.6812638651851
96.6718793221761
96.6794213552121
96.6862282599046
96.663953726356
96.6527702067762
96.6628954535309
96.6806220590483
96.6616544726851
96.6284838511842
96.6290079459547
96.6354162950785
96.6181939134751
96.6499062156435
96.6774805737805
96.6513008969586
96.6186023936325
96.6372050695518
96.6563799983927
96.6143499852767
96.6073094338036
96.6378394847093
96.6331420525988
96.6297622563127
96.6186237769609
96.6105697956236
96.5930297467702
96.593018431637
96.5848847986291
96.5664953990753
96.5900223578441
96.5956772898803
96.5666138930895
96.5979910070306
96.6488274741166
96.6355398712076
96.6087770983193
96.6475028506537
96.703439632564
96.710585841126
96.6818361591261
96.6824374637277
96.6928176423337
96.7061056662504
96.7225117134157
96.7214439972228
96.6898375456571
96.6265298641853
96.5894179883653
96.6717235230869
96.7380570062502
96.7149097949762
96.7036957407394
96.7246108139451
96.7209137379443
96.7177706786233
96.7171278170442
96.7673364912272
96.7617220875818
96.6851975688659
96.7261586671139
96.792813581213
96.766503833265
96.7909710217535
96.8240667337173
96.8071283045397
96.7869757891957
96.8121720896704
96.8186888510393
96.7608730307112
96.6957075091622
96.6401176063516
96.6909315745899
96.8190706145244
96.8723996988758
96.872456424515
96.8162895066289
96.8010382958543
96.8736382495437
96.8587761549234
96.7812165110868
96.7790925876191
96.7503621487129
96.7686628145467
96.8262718454656
96.7521143558306
96.6681812186832
96.7110066517797
96.7613472166675
96.7749010138401
96.8120786686641
96.8677514926654
96.8742337350716
96.824247645622
96.7338302314111
96.7568236095094
96.8380102376383
96.8174669009456
96.7853282633731
96.8653668257343
96.986532774066
96.9588177124642
96.8276756582455
96.7665734045934
96.7477879885289
96.7656070486774
96.7878460355732
96.7990330740513
96.806586321568
96.7979185519233
96.7825545915547
96.8452273820479
96.9001708400775
96.8939989107619
96.8846247357818
96.8856078336909
96.8827727577537
96.897953990325
96.9471869480083
96.907582322344
96.8380561286436
96.8740210272714
96.8818890123267
96.8403711272637
96.8346341763357
96.8622236904653
96.8812125326861
96.8975880706146
96.9122225405374
96.9323637122352
96.9453481177294
96.9430834936627
96.8968725101474
96.8661518524471
96.8398614460836
96.8079965698453
96.8632616251976
96.8986143106621
96.8697680797294
96.9003203524517
96.873573978548
96.8653354505838
96.8834955212239
96.8580139477021
96.897363248225
96.9362998047686
96.8915820366862
96.8409042833517
96.8484810040309
96.8809078457791
96.8755206159066
96.8816127296291
96.8932003015682
96.8768049963012
96.808518537829
96.7657807206823
96.8204505868617
96.8598281107139
96.8497970502583
96.8967987570921
96.9221509533192
96.8169396858132
96.7657225471078
96.7734701884817
96.7682538341438
96.7931840643066
96.7612854305199
96.7511311633963
96.771559592367
96.7368879646263
96.7520271809519
96.7901360795291
96.7919646914943
96.8604141406128
96.9724509575494
96.9025421149129
96.7924374693252
96.9269262866149
96.9394263221619
96.9037030406367
96.9541857040696
96.961084785064
96.9518932678992
96.8549155216048
96.773229276367
96.7680908567758
96.7762439322671
96.7230650365386
96.7203539424687
96.8588211571931
96.9535755288875
96.9246006385322
96.8841873714947
96.9027887361702
96.9501394713087
96.9000842745057
96.8564586946964
96.8892687080362
96.793593127267
96.6463251192147
96.588058549806
96.6964528229946
96.7936372639255
96.8279937351206
96.818174663597
96.7871890960073
96.8110030057645
96.7916426151454
96.7586160567655
96.8331736176673
96.8952961494327
96.9023250507126
96.8683815106409
96.8413429956247
96.874891801512
96.9058407861581
96.8920479256432
96.8727189527802
96.7897252111504
96.7470054284257
96.8082328124911
96.9110660517702
97.0263002900469
97.0878626924834
97.0364343312728
97.0470380685714
97.2031389533969
97.2122847203781
97.1002805869906
97.2014118600539
97.3619274976356
97.3858190505156
97.4055881467473
97.3506889657805
97.2187794992796
97.1084123309109
97.1044392906535
97.3603552584524
97.4646560691643
97.3610899072676
97.3890053782838
97.4041590616524
97.3525349403578
97.4180821354861
97.4996693536646
97.4568668943844
97.3601064041385
97.4275528769085
97.4698144478031
97.5503940361301
97.6797117704338
97.6327747367988
97.478159575829
97.4877186458712
97.6995675123795
97.9041008139849
97.9425708342915
97.7517206884965
97.7173941097178
97.8057116510154
97.8251745788097
97.847305094465
97.7378842281576
97.6356039605674
97.6288033558232
97.763215702983
97.9386321194545
97.9409864430778
97.8072662379446
97.8811710320837
98.1106654796657
97.9665120651928
97.9150956257056
98.0309959664856
98.0325161176819
98.0920678100889
98.2046248161572
98.1256002963307
97.9662606383709
98.1423544711376
98.4817330067724
98.2352388686655
97.9783605588366
98.0276548423944
98.1335707408496
98.2772574305433
98.5082371213294
98.5173702268505
98.5371327319766
98.6242901613939
98.5293758141205
98.5409341586347
98.435436540058
98.1629390158927
97.9722971167332
97.910758546841
97.8877419584828
97.9705096220381
97.972021986798
97.9778628715229
97.7497313130353
97.6588063366877
97.9474131085087
97.9134280098443
97.6768525780558
97.585813469874
97.5477628194526
97.4780144970093
97.4296749227142
97.4079259335992
97.4397281621346
97.4047790043368
97.3611829402457
97.3767742422567
97.257413640099
97.3193459759579
97.3823133217713
97.3068546170344
97.3238445871864
97.431940363678
97.4694456460866
97.4251102401419
97.4033779110278
97.5577015900667
97.5219946191445
97.4508486569746
97.4631084702862
97.5055295539437
97.537010394284
97.5784144188958
97.5480040567511
97.442136986609
97.393277075503
97.518752478638
97.5865202852571
97.5432476221583
97.5964349378973
97.6887717960685
97.815428603658
97.8642326529396
98.0052537512021
98.0111424454824
97.8639432589026
98.0387963744255
98.1839005840024
98.1511070836649
98.1559603797256
98.2850157534882
98.3303748220035
98.2726667440421
98.3232962645683
98.6522865850241
98.7250290426614
98.379268063478
98.2649813585774
98.4282087154574
98.4778589148867
98.4139456207716
98.1929633604908
98.0686144547936
98.3837778695192
98.6002448270166
98.4703999015879
98.4263101283102
98.6441359338293
98.8969777439707
98.6665906350595
98.2336328400889
98.2491375650162
98.3555454870565
98.1130269576447
97.9314817467686
98.0629293389878
98.1793369262402
98.2440934952503
98.1244639476402
98.1424526310882
98.2074562137948
98.1162642614729
98.3406965947969
98.3959480497381
98.226128835297
98.2437336525535
98.151642188423
97.8968953610976
98.1047749336958
98.5159540382372
98.4098235668839
98.2759643736332
98.0871807821908
98.0538301939154
98.0425876407977
97.941323931284
97.9436660273445
98.0698641516299
98.0719292124957
97.9757798470339
97.9465950481117
97.9475945339981
97.8336528074488
97.582100520366
97.4606534399799
97.5832193813156
97.6937219371557
97.5311807696776
97.4752157527322
97.6212754638954
97.7261272266545
97.7263815575931
97.6092192829463
97.5881734605249
97.6228266733774
97.607794150953
97.6210944676725
97.6858266135461
97.6801625155124
97.8050967771729
97.8253140717829
97.8515539718276
97.8555941681546
97.838925927993
97.8735537861305
97.7805692851651
97.7847521953797
97.8699329919025
97.9524472774238
97.9591505598901
97.9419981017757
97.8896303992435
97.9159156519337
97.8833501625053
97.8424905697217
97.8576692390132
97.909588538294
97.9919761713632
97.962721966967
97.9743762927451
97.946034106717
97.9329932829138
97.9216680155203
97.969031209814
98.0034433193155
98.0753389523462
98.0049980861273
97.8330990568939
97.8127969060833
97.848070595177
97.9084837225102
97.9670264107545
97.9672625962654
97.956566962175
97.9753073076001
97.9552353763311
97.9122832619675
97.8730170474906
97.8148931019347
97.8170690063301
97.6104971461603
97.6308053969717
97.6816743510667
97.6593224147041
97.65553645057
97.650056757451
97.6539965149978
97.625664366495
97.440760102711
97.4854131533174
97.4422631660622
97.4579309851086
97.4191977666554
97.4488650024097
97.5430354728661
97.6157787070509
97.6140429711838
97.5529887245075
97.4552796941242
97.4577018985971
97.507127806087
97.5756665006745
97.540040325312
97.498951905666
97.5526834890251
97.5964177026936
97.5826374764549
97.6022692871577
97.4254569556663
97.5019603686167
97.6355241237664
97.6987791810838
97.6405405225185
97.7041369688049
97.6377931818609
97.6880535488951
97.6978970271626
97.6968212546389
97.652526309577
97.4878961083969
97.5383123070643
97.4746442762024
97.5490663533565
97.5864894838751
97.4793062175577
97.3698107485727
97.2896407601968
97.0832066660597
97.0172627972684
96.7398749240569
96.199855558469
95.5797000820305
94.7836690638959
93.8684965879328
92.5931631217883
91.2278396511807
89.5635376851652
87.8583436523708
86.5117377262986
84.5053787223401
82.5812160167944
81.1035055048695
79.8247386255149
78.5775841398762
77.258046867278
75.8323138623462
74.5363012267
73.1181291105474
71.3137599299938
69.7717993159343
69.1606230257402
69.2230868507829
69.5833437065067
70.1552842673955
70.9550165322499
72.1422035487342
72.9782682257423
73.8173698284225
75.8484631349411
76.5026062313858
77.8787219462427
79.3170736173867
79.7951479787809
80.5020094513977
81.1834886034512
81.2452356976912
81.6128257491867
83.2022912658445
83.578442178963
84.0370725941504
84.2174354330857
84.9589274218617
85.8278714565035
85.8786405840963
86.4219946068492
87.4483266572756
87.7799232106327
87.8161354356744
88.4951088483593
89.2012448214628
89.400745302749
89.3182492395736
88.6924872084175
89.735277199338
91.054180055865
90.6289618551249
90.3871523425456
91.2515388784328
91.6790396423318
91.6674127294957
91.6577750983876
91.5133304492566
91.493413217244
92.3017611132234
92.5358176749882
92.4533878047973
92.4275705663381
92.6844671828071
92.6935839546012
92.7903237972397
93.1013312094266
92.9416033605086
92.5771566931594
92.752450712929
92.8935389357546
92.8362344679643
92.9571746928827
93.1659702309718
93.4384378539922
93.580597322536
93.7622659588398
93.9679103555244
94.1710137455631
94.2468840150502
94.3406488249005
94.446715316823
94.4896610594751
94.4120878160307
94.3555696044546
94.1733136011457
93.9342801403512
93.5012133297476
93.0870538713131
92.6792274595857
92.645977892785
93.3712741571434
93.7378187269314
93.7506283699049
94.1234503971476
94.5375131212041
94.5954992029331
94.7911306343064
94.6648339055922
94.1453147579592
94.7894119097217
95.0748690012324
95.0778134897605
95.2580061728676
95.1578161098307
95.3974287582656
95.366039110648
95.2645872096475
95.1942720412944
95.0310777411518
95.2782805085887
95.6966455324458
95.5485282355994
95.3169712823978
95.5517087447031
95.5894982176441
95.4820294997732
95.3497845927146
95.4153232610135
95.1899007812325
95.3771988626526
95.443936511501
95.3199631802208
95.6061725979409
95.4718760176032
95.044076068542
94.2291985088154
92.5855295348358
91.5781819815119
92.170133360345
93.0452910621314
93.948989810327
94.7212701239586
95.3702115751043
95.8353489506918
95.8783864949594
95.6467667120737
95.5478095429691
95.5014635378803
95.4789031697243
95.262018275783
94.9424955085172
94.720021159939
94.3374956769532
93.8935381269107
93.2910806791677
92.806830759512
93.0780533403083
93.3711328383348
93.55346174005
93.5866234660286
93.7037304015894
93.4467517825935
93.0184758231298
92.5569300365572
92.7897250901798
92.8118847897831
92.9094797437717
92.9658209290453
93.1047533590337
93.3441582749388
93.484041612939
93.5849002705471
93.717626223906
93.7275285093945
93.8592833057533
94.3716049214202
94.6792926070328
94.9709680787749
95.2738042453132
95.5701945688885
95.5780506490429
95.4826353235248
95.3162886567322
94.6208024839048
93.5902487473951
92.2378703550043
90.3835251214471
88.1269979121005
86.1093680709557
85.2463917731532
85.5723127573534
86.9206448089002
88.589090268892
89.7889954112611
90.7507753008975
91.6403027168668
92.0894864628927
92.6179936923074
92.9394905174422
93.0092399345916
92.9740726479207
93.0384709904314
93.1336411446781
93.1743757965502
93.2122543473744
93.1575541680519
93.1148058054893
92.9159871854035
92.7885735363715
92.7580717265275
92.7908232661158
93.0711189163834
93.4885292438527
93.7916790535643
94.1846104161483
94.5578456281161
94.7093341514701
94.6713708539632
94.4964983095724
94.1246782363645
93.4319271157581
92.3108814021199
90.7017114567736
88.6236876184343
86.4670767187863
84.7285478289458
83.9767375966759
84.7297711354419
86.5872085612987
88.865282585341
90.9911841923957
92.6150395177796
93.6094338747078
94.1002865483754
94.2553616374348
94.2358544897627
94.0969480236867
93.8915345694477
93.6674036452519
93.4018871233433
93.0898453819724
92.7355303078555
92.3695825317153
91.9838926648379
91.6200292963187
91.2247769629531
90.7358655079746
90.1099493150839
89.3583000444652
88.4940433012439
87.5873001370028
86.6777024225775
85.7818267019476
84.9006344098288
84.0558927025152
83.2462067427261
82.4390545811517
81.6190399676653
80.7970679178478
79.9666323506876
79.1441074396272
78.3339337530664
77.5023514564313
76.6048428008027
75.6696018939415
74.7265894875784
73.8203127376137
72.9942368790879
72.2641551136449
71.6703165423793
71.2165384168993
70.7992226300624
70.3570506020626
69.8591673416899
69.305181612769
68.7169603640687
68.1555298787415
67.6542519159671
67.2224351519979
66.899591192071
66.7567461280619
66.7932820346348
67.0221730476118
67.4333180152422
67.9587863757816
68.5615963355082
69.1911934869318
69.8099633892201
70.4289388633924
71.0702006854965
71.7943740618871
72.6005594446277
73.4700258846153
74.3705257347266
75.2533176253365
76.1167971248988
76.9410221930866
77.7496453802668
78.568708544408
79.3895713584835
80.221613103165
81.0310525727866
81.8225594314701
82.6360547675546
83.4394363499087
84.1750820812736
84.8388418577322
85.4199108515352
85.9108566829438
86.3080041653602
86.5870308635534
86.7406465022351
86.7900112335783
86.8002657726775
86.861003906235
87.0683367191171
87.4921232495217
88.114138068896
88.8209985842557
89.4581155195249
89.903845813117
90.1970536981667
90.3961904076203
90.5022182993534
90.5007153022825
90.3916832027887
90.1942394484531
89.8896614182027
89.4896332100101
88.9986721308549
88.4020400518584
87.6673717435234
86.768030906675
85.6871523577392
84.4180238306362
82.9550956021133
81.3568995848031
79.7387226516105
78.2527312642294
76.9843796757337
75.9111600174541
75.0146339792899
74.2553265580699
73.6061770739233
73.1262898756174
72.8562248082125
72.8104819946794
72.8798867278523
72.9020230869643
72.7837035574649
72.4334039255797
71.7987388703721
70.9753812404813
70.1390987931915
69.3903831540996
68.7367354362657
68.2058551765879
67.8254924030556
67.6034300599774
67.5158344108854
67.5169798582392
67.5683231602285
67.6768540765116
67.8531333097078
68.1133466968656
68.5025865532844
69.0375406818483
69.696387981584
70.427295055143
71.227853465922
72.0760918915198
72.8944222449388
73.6546499332441
74.3774606564243
75.0769612929131
75.7489983410446
76.3936538572587
76.9443876033077
77.3901886766921
77.7605682214667
78.0048499529441
78.141208821033
78.2324064239215
78.2823943577981
78.3338230937568
78.4298126518625
78.6054150752211
78.8702601587538
79.2377023419935
79.6821875489515
80.1758056242267
80.7148745264453
81.2133396998242
81.3124787602555
80.3999741133318
78.3437224834334
76.0123345782318
74.0224268947311
72.2522709726505
70.9582021508324
70.8372281441953
71.9925225316235
73.6654335173061
75.1897549488967
76.4222897038512
77.3954205328576
78.1476030591989
78.7674673253499
79.2995750940067
79.7693700036053
80.1910167721816
80.5541372401545
80.8628347353398
81.0732620452403
81.2097062383369
81.3468904656559
81.4973193119072
81.6188855746956
81.6485904436516
81.5293850591388
81.2051279605632
80.6967584070379
80.1300679055713
79.6270038768071
79.3324153053466
79.3598955140289
79.6402016130217
80.0279943687396
80.4569939678912
80.9025874950599
81.341748196932
81.7871379235389
82.1683107657343
82.4892938621445
82.7918041720532
83.0868157791157
83.341165748057
83.5625461388521
83.8188982452802
84.0478216103022
84.2297653310702
84.4174248673899
84.5699527304595
84.717891099122
84.9094884228773
85.0870887997615
85.254935071788
85.4163204690072
85.5503127056369
85.7042981551899
85.9012745844069
86.0560629117901
86.1805669441858
86.2855075143036
86.3771245384671
86.3915366913623
86.3263188374789
86.2618513839324
86.1555817567715
85.9339152790868
85.6932953461001
85.4885806410263
85.3848987500986
85.349722808712
85.3797572956079
85.5016596540855
85.6543168902224
85.7587232121007
85.8286546281196
85.7821230905761
85.5268592450057
85.0708208158691
84.3911606170162
83.48002290362
82.3330805108193
80.827588826211
78.7364342916398
76.7831315727637
76.7122834097632
78.2563464713238
79.7965027543536
80.7952822217023
81.4190232300704
81.8157264483923
82.0385234233156
82.1302553563067
82.0893161400296
81.9257780968939
81.6401749497485
81.2770092809229
80.9739738346803
80.829456103116
80.960759315758
81.2817407926118
81.6860315827577
82.0682219836761
82.4540019915143
82.879524971904
83.3057132979685
83.6863479434049
84.0499693574547
84.3499136595398
84.6220666722495
84.8706338962117
85.1076824198098
85.326474943465
85.5019157341789
85.6239302518783
85.7221148692519
85.8392057031919
85.9801619452867
86.0559860535616
86.1332044554552
86.2409050134009
86.3013541381922
86.4474958994575
86.5630934268154
86.3088963230587
85.5816355394339
84.7487392488906
84.4806625469353
84.8282304757354
85.4317103613608
86.1176315450263
86.6510423172288
87.0530076429002
87.4701052993927
87.832935432905
88.2169918584014
88.5653426755186
88.9328277376206
89.2180868486561
89.529682069584
89.9113344318484
90.3500041077858
90.737095882925
91.0675759618892
91.3475980269437
91.6615813942494
91.9887290396105
92.3129173062721
92.6769092310646
93.0069916010575
93.2266475697678
93.2471172162061
93.0625517976934
92.6289769630468
91.4999903106441
89.4973514036156
86.6691054246065
83.3569157815546
79.9868694680946
76.6269427653427
73.2800447036132
70.004364312444
66.7897689397401
63.8795163069012
62.2770419831478
62.2068103094325
63.0415451966941
64.0614672000955
65.2641021999313
66.4300562626953
67.4119403675843
68.5085947333279
69.4407988843623
70.0857858398663
70.8058356302681
71.5106576226882
72.4115240749998
73.593341443953
74.5897758345411
75.3150426919845
75.9597242954171
76.5916407239684
77.2074777488972
77.5074860831365
77.8603886935695
78.1912153040513
78.3457391768734
78.386942168253
78.5710701813232
79.2284726107146
79.7424395604783
79.8718055171531
80.2286756990492
80.8541003639074
81.4256617200067
81.2806833750139
81.2003944988631
81.248446338602
81.6323770382219
82.1289783938772
82.1651387807935
81.9474841958265
81.9648512581912
82.4630331685202
