1798
3999.43349933624
650.420452594757
1
128
4
95.7264557736514
95.6314321537381
95.601601597397
95.6937289224794
95.7726435631334
95.7696992815343
95.6862394206159
95.6405263167046
95.6698170827698
95.7121433004714
95.7409224177834
95.7276260868087
95.6662816166173
95.6418714319552
95.6772437765498
95.6866045126119
95.7048953755994
95.717739484703
95.6379154223825
95.5657279098335
95.6565120392919
95.764737127162
95.7720172580704
95.7439883340414
95.7230257958639
95.673470144906
95.6527548923193
95.6842966694656
95.6574718572595
95.6429831755879
95.7016581180269
95.7439914897689
95.7566682416422
95.6881559615312
95.62836970832
95.6422515987907
95.7205016495137
95.6997249897252
95.5369244987397
95.5610047600678
95.704623176623
95.662761217682
95.6041038151683
95.7487270280188
95.8896361748592
95.7900063246119
95.7169636179507
95.7283202086368
95.6152965514805
95.4210059349192
95.3483866610279
95.4483839356882
95.604828260701
95.8719508513152
96.0593287102135
95.8877920229336
95.5303250429195
95.5243059842703
95.6863206794892
95.5043483879096
95.5153477164422
95.7079338646811
95.6053641618326
95.7575066271604
96.0470784074517
95.8482583956347
95.6372676173938
95.5061108250256
95.4089341224088
95.7750162539998
95.7680725272485
95.5589468436752
95.7354479137546
95.8996164551572
95.9265662266
95.7834439819418
95.2729403384069
94.9462419713788
95.6891098095686
96.2598361599825
96.2478716505643
96.0076355360148
95.7314734469271
95.5799093471091
95.4034371341783
95.3318303468597
95.6151821937939
95.868403510634
95.9104785373931
95.9782474541701
95.9454563885412
95.8008097846529
95.8264320083333
95.6343994124135
95.2842864606251
95.5646757803376
95.6617343092588
95.5464366834399
95.899854777956
96.0340877945613
95.9148973524704
95.6762200992897
95.6026723596462
95.7539784197452
95.4835749924903
95.3568639884689
95.7234147233682
95.8064071906114
95.8874420075179
95.9553718306833
95.8966194240273
95.8149836024819
95.6829751977156
95.5716525298855
95.5699768748144
95.6100888172155
95.52741226727
95.5611374768475
95.7741687178583
95.8691820043278
95.7696963052061
95.541764701869
95.5182273360901
95.5770912545361
95.5508397759615
95.7547924390845
95.7949760917044
95.5942673688375
95.5648714261066
95.7250601119261
95.6691921651923
95.3784745394808
95.2995764232857
95.7151491562276
95.8101606308569
95.406737826125
95.6903191123652
96.1609354778522
96.0265530513969
95.6696425563941
95.4828528128195
95.6678263549155
95.8904363844974
96.0848789334679
95.9606083287573
95.7253818103316
95.7173920205861
95.7195455350063
95.7407980905622
95.7802399777448
95.8723852743707
95.7994477131793
95.4585089128464
95.3084814057686
95.5959203776927
95.8302692863434
95.8807416011815
95.839224216815
95.658598896239
95.613442448386
95.7018113122361
95.7067123316688
95.6914996387487
95.6039815511245
95.4495576665863
95.3503867973604
95.6269560500107
95.8820746248454
95.869908114351
95.8327277068881
95.7512733505694
95.5097765998032
95.2083525854157
95.4454716461601
95.6459171051905
95.3674154486673
95.6205348464526
96.0795255612271
96.0453334312216
95.8118090566371
95.6591127307723
95.5890039057215
95.4077284849651
95.3392021044812
95.4692847637774
95.2754607523017
94.9487213552334
95.0928392580674
95.6564813389705
95.9151418674854
95.8093386808246
95.7127996060589
95.6411396624098
95.5456088377624
95.4559119324859
95.3999383834572
95.2716451268244
94.9645685067562
95.1552681630922
95.6259110143093
95.7336566851647
95.6874142942733
95.4968908434852
95.3750395756243
95.4885220155264
95.4929480346884
95.3923082665866
95.4230555410118
95.4347708045108
95.5271522159489
95.7427681367079
95.7844655673916
95.6232643100067
95.4791825080345
95.5116250679746
95.5223389637061
95.5285396462034
95.622403266928
95.6019463361614
95.4657179690879
95.4215665302444
95.6183937847503
95.7281381608794
95.6613250618945
95.7105108000846
95.7204668173426
95.6423908388362
95.6998874141878
95.6401670130578
95.3186733485736
95.0431307806002
95.1641368139996
95.5214703092949
95.5973062197006
95.6039363682517
95.7023356072663
95.7137449015945
95.5266126871113
95.3209975791389
95.359630041972
95.3910770710322
95.3264875849998
95.4463139221377
95.5145556108427
95.4945772387141
95.6514717827456
95.6986608995974
95.6063464749251
95.6798344701081
95.6654474022017
95.4696998537604
95.3501077455206
95.3221582639279
95.3605889432388
95.4542898505727
95.5826271884274
95.7195631844839
95.7849464518835
95.7558142483944
95.6897232584296
95.5716814639021
95.4635470538854
95.4525709930207
95.4756675855616
95.4671580044362
95.5369548059035
95.611259927722
95.6289160270327
95.6753171937724
95.6838078043054
95.6775405516187
95.6505461520051
95.5944819559713
95.5632496190012
95.5883806485185
95.5939843508564
95.5401548115011
95.5213886238947
95.5886644018745
95.6661084164112
95.6949104388097
95.5494965290287
95.3343901786741
95.3436557305642
95.5103526881139
95.6580118435722
95.731268795876
95.6326517777859
95.5272624923912
95.554227242367
95.5842575615182
95.6232939370832
95.6484066483125
95.6083683718313
95.5692897170526
95.4868617238462
95.3747336326423
95.2512938516146
95.2661051907374
95.2537073417001
95.0492928727843
95.0208136400523
95.1208614101843
95.090881167014
95.1185755997441
95.1470124920111
95.0224579211759
95.0531907855253
95.1058942321583
95.0062349696915
95.0623200460655
95.1919230543557
95.1692660019608
95.1929102162605
95.2894863838152
95.2759662328957
95.233947070667
95.248256802173
95.2567761737827
95.2454748246889
95.3305917022761
95.5130414307852
95.6365776661283
95.531160350462
95.3693703240745
95.4053773019693
95.5336477469253
95.5913632568657
95.559815939787
95.5823008352564
95.5921209876004
95.4934211081264
95.4660047900388
95.5194009643085
95.5032143864837
95.4759419230946
95.4555044290201
95.459887403736
95.4915010979501
95.5080266856153
95.5368220702936
95.5283937579668
95.4854867141985
95.4719190230597
95.4915432769936
95.5066371893505
95.4568542449189
95.3897107925039
95.4444259887968
95.4881452670128
95.4676613748587
95.4670823456996
95.4432476564915
95.3841488081313
95.3620769404031
95.371381892089
95.3763353392489
95.3896587052839
95.4188382571962
95.4083692399827
95.3706557411954
95.4329188824874
95.5062434134739
95.4571480227971
95.4095033490051
95.4758233765055
95.5523820061043
95.4830031850896
95.3713645580264
95.3922805320058
95.3972142712361
95.3922072376304
95.4520355489433
95.4526389822235
95.4066714298025
95.4083243521145
95.4118112819581
95.3699268779313
95.2945085303972
95.3116322651432
95.4016777848799
95.443695347171
95.5050299612035
95.5238009392562
95.4429744337455
95.4251292481021
95.4606217979288
95.4292096550047
95.3900842210245
95.3827603534084
95.3939056145348
95.4023026498457
95.4266548362262
95.474054110922
95.457279928279
95.4304623686708
95.4196430641033
95.3909562699781
95.4648620272384
95.4927513854259
95.3958327447436
95.3929028341198
95.4292511809801
95.4383473917452
95.4412541497815
95.4179724966797
95.4297436122755
95.4887003911257
95.5296546944742
95.5104765802284
95.3737084203487
95.2982307352413
95.4112057492415
95.4119000969593
95.3110523632578
95.3625230044742
95.4263129873116
95.4482354116927
95.5190388163269
95.5086713073976
95.4345569848489
95.4389287677187
95.4316144195407
95.4122572277133
95.4153540911137
95.4357636862779
95.489141531333
95.5182077121028
95.5049555129088
95.4851626820463
95.4541164393231
95.4508712594777
95.4658606350593
95.4518160614291
95.4578195267635
95.4127190237853
95.3899292293349
95.4392732541973
95.4326102107863
95.4710374346137
95.4932683454191
95.4048322621406
95.4031951488589
95.4801126182133
95.4466407379376
95.3655704747879
95.395262634949
95.3965982621556
95.3249738289467
95.3771798014829
95.4621709968137
95.4346161886805
95.3490257453708
95.2867417810915
95.3272981237358
95.4206411717696
95.471018364596
95.4672951939548
95.4217791227333
95.3178929284104
95.2435637012699
95.2679520800181
95.3121269595589
95.3017181333601
95.3058655522903
95.3040696774914
95.2288818294193
95.2482256969394
95.312464952001
95.2637534527994
95.186360627885
95.1849205488612
95.2446266427912
95.2274032597072
95.1832252888414
95.1772353100294
95.1591718657473
95.113234061492
95.0584629551135
95.0852575389248
95.1489504716529
95.153683862108
95.0454888054553
94.9710637979172
95.0369894576182
95.1169151246058
95.1531647414059
95.1656605366055
95.1429707312963
95.0768957585066
94.976138527235
94.9064582154725
94.9019084545752
94.9134643230157
94.9075799940544
94.9499708523096
94.9869946964266
94.9419431226723
94.9563876238626
95.0036510482336
94.9518170740892
94.908681808616
94.9329484603546
94.912969733529
94.8685798871056
94.8636088150024
94.8480225405259
94.8324650242495
94.8544582355158
94.9369606179938
94.9950416746792
95.0072813703317
95.0724340812192
95.1330688994263
95.1652680378346
95.1923351758809
95.1361787364294
95.0974198084751
95.1579408165213
95.1830097675668
95.175590572463
95.1504606212388
95.0961406245556
95.0658496597803
95.0210970857897
94.9725092501836
94.9179866456512
94.8134247321215
94.7810995366721
94.8066226777783
94.7405353318257
94.6819713009437
94.6810763269213
94.6348961833397
94.5579235883712
94.5152231346054
94.4872540919283
94.4390215617906
94.3933392428013
94.3796480152226
94.4015090011237
94.3900774433962
94.3054310814424
94.2572658582974
94.1640299077095
93.9781130731711
93.8645131025204
93.8465954360538
93.7587580772844
93.5889397894873
93.4124276385574
93.2768797984614
93.1994788018017
93.1369970230017
93.0779633410141
93.1094272952278
93.1836524587493
93.2101437596853
93.239259764569
93.3075050270913
93.3900501817237
93.4829698262809
93.5894216338441
93.715661683264
93.8353652634981
93.9493324547258
94.0715333405972
94.2120483262202
94.2865878713813
94.3003982163965
94.3565752283788
94.4076673915636
94.4029095464209
94.4299034402654
94.4661591969455
94.4769917818668
94.50772892227
94.5133564826203
94.5179025083418
94.5020308692757
94.427004406066
94.3734634777801
94.3410827476598
94.2812684096138
94.1563395243906
94.0763024938828
94.0976585887913
94.1513587528238
94.1665794504522
94.177089547943
94.2237209408416
94.2785115703351
94.3009955372411
94.3133597879509
94.3372677139162
94.3632282288877
94.3469987575738
94.3039011882952
94.3526431551267
94.4233206873845
94.4556005501146
94.4772945681991
94.4874930285172
94.5133712349836
94.5301389640764
94.5187086592766
94.5395073003809
94.569250915418
94.5384920475894
94.5592765577918
94.5929545964004
94.5926759137129
94.6194822552213
94.6340126933064
94.6243301736033
94.6254161550939
94.6608203072148
94.6988442218643
94.748884585151
94.792299216422
94.8102348797741
94.8304304534687
94.8558015669933
94.8823227285489
94.904777492696
94.9286380892358
94.9463352400367
94.9516366940165
94.9301665771776
94.9272618200641
94.9802251115486
95.0013031038316
94.9859595894177
94.9812996988727
94.9739068986525
94.953921480828
94.9050247996151
94.8886826181415
94.9192239106003
94.9388923303504
94.9323309996572
94.9450146718459
94.9533367319812
94.9421568296909
94.9709162536003
95.0156114156078
94.9845203963303
94.9500935282188
94.9661800572773
95.0085303772204
95.0274108327128
95.0110614871761
95.0003521548125
95.0452065653382
95.0809648209658
95.0510316761675
95.0317265716833
95.0621992979728
95.0819871779862
95.0527983464654
95.0656830112925
95.1244029217427
95.1309851099347
95.0939258702154
95.0571699040699
95.0720600261996
95.0663321659546
95.0591861819546
95.0964241544942
95.1173461346034
95.103026457407
95.0579789819199
95.0281570551044
95.0418308997086
95.0736676379263
95.1042268463383
95.1199351115792
95.1296027793902
95.0980832751357
95.0540742796609
95.095615182564
95.1403759854164
95.1296181383262
95.1319126334636
95.1276325537547
95.1430631967752
95.1642526382422
95.1671009896669
95.175043545087
95.1759748308224
95.1542896694716
95.1529925840868
95.1465799246364
95.1630446712806
95.2220009670505
95.2280584309503
95.1970431896555
95.1832733920491
95.1800429227223
95.2103669625583
95.2333877321159
95.2006084981565
95.1968035322386
95.2128361253909
95.196206846671
95.1820371506805
95.1634972010002
95.1522273500901
95.17191039813
95.1795931732512
95.1681856035378
95.1967078746351
95.210327884564
95.1838738140553
95.1442606828164
95.1252751485385
95.1220526736756
95.0987162113837
95.0822102454923
95.0980842194924
95.1067547083872
95.0672105334301
95.046207444836
95.0675922226466
95.0602620982382
95.0485107724249
95.0890668322393
95.1370795942968
95.1488695930345
95.1318067983395
95.0826025501089
95.0781122724273
95.0759379735049
95.0858225512339
95.1154621706546
95.1150946994122
95.086334597146
95.0667542620619
95.100750161412
95.1427925271655
95.1623326945648
95.1769021684061
95.1982456249692
95.1893149944684
95.1818716240695
95.2969525444025
95.305944651711
95.2341791650002
95.2450707199768
95.2561876219676
95.2288471895483
95.2120754045166
95.2590277899018
95.3011454376089
95.2993778656721
95.2840297931222
95.2619132796643
95.2802922644773
95.2973240960489
95.2551086552196
95.2342276994605
95.2582991610456
95.2549988958883
95.297343545638
95.3526497748475
95.3800707672103
95.2744070912355
95.1945906141669
95.3369918514136
95.4125878729265
95.3359783508864
95.3266504767811
95.3607210227562
95.3395459436766
95.3097795957025
95.3075029947326
95.3168066759614
95.2834844037645
95.2243307265233
95.2236020639673
95.2521782478394
95.2931520454338
95.3421909134996
95.3832531957115
95.429165149313
95.4330478013473
95.383913396019
95.3666555747448
95.3192398526757
95.3076534270116
95.344283886404
95.3471713580815
95.3494701423616
95.3375310719535
95.3189132949231
95.3248457199725
95.3379958390636
95.397469022182
95.4325823332049
95.3890517360395
95.291081907753
95.2533855630304
95.3859928765521
95.4815292873396
95.4591804326688
95.3799375394404
95.3660317967912
95.4288199947279
95.4332435767151
95.3984011038788
95.3750896932033
95.4253498005111
95.4321321372761
95.4023612258871
95.4534857250995
95.4541535435817
95.3966517191164
95.435152465481
95.489098114046
95.501811737122
95.5025359344744
95.5126519152529
95.5066745284958
95.4873313492122
95.4690245448982
95.4594776699135
95.4585174999608
95.5182534900402
95.5318484992538
95.475348185294
95.4275457185369
95.4331587466079
95.4555178999194
95.4779191483312
95.4799717125779
95.4681617656428
95.5052041571552
95.548300427402
95.5843107096138
95.6163103215003
95.5253366885133
95.4417739506009
95.4469771073383
95.48484151522
95.5199119414323
95.5096841310367
95.4765685083405
95.5139159384519
95.5275744582367
95.4877702098975
95.4806460240365
95.4519009279185
95.4163466518627
95.4996378926811
95.4947385517156
95.4705358558959
95.495006664716
95.4449229341218
95.4404589751434
95.450790845246
95.3948866220551
95.4027657260011
95.4685107557825
95.4770321896588
95.4318149344312
95.3873525375584
95.4000349598738
95.3877530631836
95.2879312279086
95.247661064883
95.2843288150992
95.3443141960453
95.3897033312194
95.3859158722042
95.3829102806975
95.4340506477459
95.4628269399157
95.4366729567174
95.4222397811834
95.5124044818607
95.5820347957972
95.5673383548935
95.4998864787728
95.5384238182416
95.6314485578909
95.5653748842468
95.3953017339629
95.2934555139923
95.2464003469263
95.3037858778176
95.4654313990127
95.534300932614
95.5122049922585
95.4873271791687
95.4599133571556
95.4510425690031
95.4526785911053
95.4042238396349
95.2567826288537
95.1693326501014
95.239821182099
95.3280161206036
95.3679581152168
95.4013863788622
95.4304468842241
95.4414969998911
95.4537957388181
95.4634257715254
95.4511886721981
95.4470738241877
95.4575465206488
95.4458720627758
95.4271086012972
95.4537589177731
95.4488146185274
95.4238104844674
95.3786954375663
95.2747495118821
95.2625070230672
95.3982445233262
95.4790252225044
95.4971112294974
95.4800488961282
95.4624553502134
95.4968973411784
95.6111151142591
95.6961432836987
95.6623863386212
95.5783511072859
95.6798873544926
95.7993022940211
95.7513317436768
95.7722170290983
95.7808008693724
95.7729081878574
95.8783272799849
95.979750004321
95.9558067988603
95.8636019821645
96.0288843508399
96.0869204659545
95.9472506579992
95.8958557370333
95.9576425489448
95.9701779973923
96.0453982139225
96.0975455281674
96.0359374838732
95.9651996225849
95.9747985066027
96.0767604026014
96.1273071009676
96.0958485534157
96.0917435352208
96.2611454958388
96.3807910908609
96.2915091589734
96.2366108040647
96.3324901104935
96.3255898745626
96.3641688845008
96.7119186462988
96.8226096981842
96.5877315191915
96.3915429180328
96.4673762275027
96.4931912686458
96.5414380046269
96.6625609476238
96.6970430550892
96.4996738810805
96.4998833277892
96.5886092032874
96.7235596666488
96.7486511183689
96.6130529748463
96.6191761182707
96.784638615252
96.8738689911362
96.8745614881926
96.6180862347318
96.4733123472713
96.7853369614062
96.8983394509816
96.8986290941053
97.070018389124
96.8522875399733
96.9245304847605
97.4091017690778
97.5350184130136
97.4180636653206
97.272991103588
97.0819398460063
96.8456174830156
96.7904780410474
96.9184848088826
96.8010383374779
96.6073650412334
96.4303012168763
96.5867571908284
96.7675011769669
96.7078771886564
96.5079763278589
96.3794861353525
96.3039918525242
96.2335181192742
96.1775085466507
96.1795078606912
96.0855481982146
96.047103499267
96.0732751596115
96.0387776088307
96.010152769207
95.9605637944792
95.8506622872949
95.871752052677
96.0112383021802
96.0994875821864
96.1255747996447
96.1040233370978
95.9747630806406
96.0064425820156
96.1067857335878
96.1359028306942
96.0535024244769
95.9713608645229
96.0850924630514
96.1447913367903
96.0329519375518
96.0814434774668
96.0908395036115
96.0136128678954
96.121495360763
96.149836010826
95.990041385492
96.1910270235211
96.4949862355524
96.5705948800076
96.5872874421323
96.4767202658868
96.3718683557443
96.4981114095543
96.5692255784082
96.6180927468356
96.5386903744869
96.3600538845609
96.6903231123558
97.1368201297722
97.2095837087395
97.1081877249299
97.0467738643287
97.2541787910476
97.377356156317
97.4248991084589
97.2590441285968
97.028089562058
96.7167969624265
96.6416316194723
96.611506593659
96.9847451665668
97.4098672330168
97.541357650636
97.3278820499656
97.0140146126728
97.0575367712546
97.2976246258917
97.1310577485313
96.9634065815413
96.9900949624667
97.3050010429524
97.3278040802864
97.2311541016552
97.0097376130051
97.0260787482166
97.1142112125869
96.9015654144788
96.5858751057483
96.7192040071311
97.0533650976701
96.9388878818743
96.6324454634056
96.7207384468921
96.7500432217839
96.6715295235789
97.0852720031168
97.5219720583733
97.3971727785601
97.2734193226841
97.0831374640674
96.9740187022108
97.0320847611869
96.9459873116339
96.5920992090221
96.4660095850401
96.504362792178
96.5463916959141
96.5027976829965
96.5554587781405
96.6382348931202
96.4841036245322
96.3212018311689
96.34151738477
96.2972729024469
96.2435309654694
96.3284320868229
96.61298587054
96.6354576542938
96.4690378134774
96.4038974204109
96.4709063621358
96.5704292874623
96.6429050586647
96.6091975823679
96.5968867735266
96.6264957221547
96.5846327708052
96.5312328232503
96.6383353981082
96.7452009540091
96.715811626166
96.6771437883166
96.7627011993103
96.7434086254203
96.6877004816756
96.7602797035784
96.7567966149253
96.7009392940806
96.783264321128
96.8294455845506
96.856104809731
96.872240247535
96.950877157154
96.9422487485414
96.7945356592702
96.7734980546925
96.8644896800277
96.8593390835912
96.8148287605597
96.8539763608596
96.9240159109088
96.9761783244441
96.9713827113643
96.7773903645454
96.7279466015432
96.8863580053083
96.9775248313519
96.9258583623459
96.9092232682331
96.9297820126238
96.9311012309524
96.87875408125
96.8533362363928
96.8580312448774
96.8806339542982
96.825051118784
96.7409765126268
96.7193536410883
96.8118778790336
96.7944987626461
96.7227260512872
96.6963815903073
96.6772924298371
96.5938789197761
96.5129272962191
96.564741596378
96.5954409872278
96.4820602170111
96.5290091160108
96.5991512311073
96.6205756468842
96.6262979349069
96.6911249685426
96.6730293248383
96.6190188426227
96.6232660352648
96.6896244190711
96.6810519265099
96.6901243893154
96.6843541608625
96.6640717787018
96.7019773757404
96.7816439550367
96.7773112570966
96.7062850626978
96.6859790432693
96.8601265464
96.9189544158561
96.891436034184
96.8809636109715
96.9134171448432
96.9429536867727
96.970049549992
96.9221177073927
96.9080134201644
96.8379829225911
96.938104567657
97.0227224493807
97.0347026964457
96.9925718073142
96.9005453451537
96.8593377581073
96.8544824973095
96.7386938653817
96.6428257646074
96.4848808280612
96.1553955454146
95.7582401976417
95.3098649052001
94.5048367854573
93.4925227508273
92.1359435388464
90.5693680885993
88.7876351458142
86.7881616164183
85.0960335571311
83.1906667704439
81.019764552296
79.2578228706404
77.4774932088718
75.8160603463532
74.1209299424346
72.2917483552817
70.631330042774
69.049216183956
67.0169387857583
65.2915356506455
64.409970561351
64.0802760666976
64.191775294346
64.5524511262905
65.3012067906495
66.759030962087
67.7800283248862
68.7457135004255
71.3521808625245
72.5693653350028
74.3601803815038
76.0549734764373
76.5279159338577
77.1763955449176
77.888262993516
77.6762346393923
78.2245096873258
80.5238330797986
81.2158587607216
81.4179529857557
81.3080369432455
82.0710777362835
83.1835617692813
83.208461689131
83.8332278122834
85.1916857587222
85.4857237062143
85.2682327761685
85.9896791311383
86.8837122185769
87.1034601159299
86.6911438992723
85.6333968281591
87.4299489327224
89.4796483026114
88.7824980804566
88.2661632520633
89.363558130275
89.8392439090964
89.6394299585833
89.4059845528255
88.9344006876388
89.0777240227685
90.5207410063294
90.8879386221478
90.5173405750087
90.3043510091397
90.5061690872349
90.5551443792084
90.8608083989744
91.2617571065478
90.9058394299531
90.4987899443297
90.9819659393647
91.1616381163668
90.9603050166146
90.9648630721356
91.2067833736513
91.4764628517687
91.64837905594
91.8940410548501
92.1263411388345
92.2886958963596
92.4123407577792
92.5416807398972
92.6308924122501
92.6805217108433
92.6634250293577
92.6303981006647
92.5032488411266
92.2357574411975
91.8059726174191
91.2714602056526
90.6209210208803
90.7139747208262
91.7534165077946
92.0072012606598
91.8837228897643
92.4404981613297
92.937417423038
93.0330804345069
93.0457556275158
92.5160779621577
92.0175114588565
93.634649134264
94.1351949576184
94.0109701232245
93.8842013953628
93.8105132075308
93.9373511847183
93.8125428592561
93.6967128860691
93.6415839604368
93.626061759765
94.4515836031602
94.7513225078174
94.3424365548207
94.1348263391386
94.3653225649257
94.2530018725409
93.9901395445028
93.9611710520418
93.9671343849568
93.8979615891028
94.3129072459722
94.4717762569009
94.4976284235755
94.6166404777577
94.4225066101522
93.9419193477787
93.0657528750497
91.6352554927229
90.7709981660505
90.9371146801093
91.4061757034707
92.1224070551231
92.9478513082821
93.9444959205792
94.5811876179052
94.5357682542191
94.3848159068526
94.5317245267806
94.6229710529098
94.4706607453184
94.1232143988711
93.7809650239935
93.4278931967978
92.962886330924
92.4740041959293
91.9331955929739
91.6629793984387
91.82726644702
91.8998940253755
91.9282835352412
92.1843202270266
92.3559593321491
92.0208918044253
91.4902203066877
91.4458424637436
91.8822822590861
91.7465826893632
91.5749807910911
91.525783365095
91.6946623916792
91.9731437084371
92.0817960249877
92.1497630935394
92.1999963117887
92.1179348808805
92.4729537131943
93.2027406814626
93.4869380997716
93.7289269674458
94.1529722582609
94.4480262995368
94.5145044295632
94.5706822222154
94.4036126838114
93.9292638114521
93.1650208516491
91.7343151479797
89.4796598377589
86.7620752386745
84.3330040419499
83.074396284068
83.1057813310356
84.453243457474
86.281802185903
87.5759512838985
88.7297278535555
89.8248028829079
90.4946332303217
91.1582542729317
91.5292947308692
91.5501490007651
91.5215721829081
91.7051019482007
91.8144231539201
91.8161014765935
91.8471440816431
91.8504861206652
91.7705890498813
91.6292284305171
91.5468811660617
91.4672470025632
91.4401230232103
91.686428716657
92.0641342507018
92.4803824349926
93.084060302335
93.566881893068
93.7246300270337
93.6901577587985
93.5436101538747
93.2242648289319
92.6030965826576
91.4798734021999
89.7232007518676
87.3417306764667
84.7109298599561
82.5189476432275
81.4692323094146
82.1121097745278
84.0274123847241
86.4570789351392
88.8383129762609
90.7734688462267
92.068705174538
92.8030895454168
93.1409562753781
93.230243884526
93.1661964195174
92.9935837091413
92.780667566058
92.5189420011833
92.1950014731524
91.8508191017848
91.4500619130118
90.9899043791955
90.5496346433472
90.1308171587404
89.6419837722134
88.9853692939493
88.178868063947
87.2423352530838
86.2262742837322
85.2138629668453
84.2250143724721
83.2481681125822
82.2952306186927
81.3560192712549
80.4054221773869
79.4532867769557
78.4817298520594
77.515657843551
76.5509433213866
75.5869696368027
74.615427412168
73.6103045724164
72.5677536886747
71.4900028824146
70.4146461948664
69.4021233151889
68.5084507532665
67.7887063832341
67.2213571798404
66.6936576429209
66.1395130421947
65.5358605919315
64.8657211775676
64.1619339012579
63.4729739329251
62.8268441793476
62.280741797285
61.8830202102508
61.6648614971638
61.6736175861521
61.9062787864918
62.3582394413096
62.9679740139477
63.6617476312417
64.3832817381149
65.091209380931
65.7856983786331
66.5075185045706
67.3103024871482
68.2338029449418
69.2440628051891
70.2627113255663
71.2641093333695
72.2578348812687
73.2248363214737
74.1565947616452
75.0676052438736
75.9811449094246
76.8955902840407
77.8039863347862
78.7139718724244
79.6104733118077
80.4753581547611
81.3068315890177
82.0667797029557
82.7425167255004
83.3322012818538
83.8140178327914
84.1671503608086
84.3792574984808
84.4622444650927
84.4908021254447
84.5778705162632
84.8001785707958
85.2250173431497
85.8553346090142
86.6058939307079
87.3388866843466
87.9164908533568
88.3040696127333
88.563322884487
88.7432167066764
88.8237778846144
88.8021582089145
88.6527664234793
88.3778511207545
88.0067808974735
87.537166581623
86.9485873709329
86.1972965635436
85.2713836945841
84.1257405318972
82.7347572087468
81.0794148484979
79.2182604572707
77.3256192614726
75.5672921937605
74.0258188369669
72.731702810618
71.6484166840378
70.7268563028851
69.936372368895
69.3314243317105
68.9919186773422
68.926534495036
69.0352313986363
69.0593216834517
68.9127311107235
68.5666621403683
67.9148906861279
67.0220185188617
66.060090112269
65.1508528259023
64.3575020313391
63.7054271454153
63.2181145065067
62.898952927861
62.7503877195677
62.7240927654844
62.7788824877332
62.899529724167
63.0789479100287
63.3407399512055
63.7412294983872
64.3215631668506
65.0587955463563
65.8979347989073
66.8134005703604
67.7677454199378
68.7036776738845
69.5890969999654
70.4530669327845
71.2636356156919
72.0463639843652
72.7960540424575
73.4424662295023
73.9779144925976
74.4275857905142
74.7549101353864
74.9552996431482
75.0582655481833
75.1068266863283
75.1573142426127
75.2523066582575
75.40931661431
75.6772362386753
76.0915220434037
76.6050665623375
77.2056815376534
77.8761543869151
78.5187979930359
78.8082168008966
77.9440044681639
75.662533795348
73.0033618431277
70.7267847883473
68.6155432708454
66.9565188924774
66.5776250504894
67.6832086425393
69.4864348646225
71.2094190888483
72.6114146923017
73.7275881379355
74.6165624185273
75.3384584861556
75.9451307633712
76.5189050211886
77.0489477047799
77.4969710390345
77.8262977814892
78.0390835384266
78.213019698989
78.3808492913424
78.574718452486
78.7509869525219
78.8049185566456
78.6882149046599
78.3708916148787
77.8377802761293
77.160624740427
76.5642651986349
76.2039782974336
76.1388913433808
76.364775050079
76.7835277589239
77.2629787671938
77.7370745807389
78.2368373336483
78.7224563765781
79.1219737486127
79.4956665157985
79.8562651915292
80.1715093698476
80.4928301623345
80.7797661994189
80.9938591507396
81.18643833868
81.3924157082976
81.6058449474413
81.8069623835764
82.005029428463
82.1987509390634
82.3779812451045
82.5192517463663
82.6793270931328
82.8720999865098
83.0590614955174
83.2495189155359
83.4252381014082
83.5830933324666
83.7337641546644
83.8472893783639
83.912985978229
83.8896534137193
83.824959693709
83.7092986793906
83.5026130797318
83.2944568043246
83.1238492787844
82.961938013256
82.8776312832205
82.9238086037671
83.041209321337
83.1977010583016
83.3788472021124
83.5153647899025
83.5229269669305
83.3595353230498
83.0240174563058
82.393551845844
81.4980090690508
80.3442721090974
78.7259613758829
76.2676162508345
73.8560178806986
73.5225794000507
75.0989119983973
76.7966762599005
77.9529122740095
78.6754146397736
79.1140388218371
79.3623830199544
79.4428721131889
79.400268343993
79.2776644374062
79.0358952560744
78.6588906710171
78.2476233242892
78.0241433365484
78.0862721015768
78.3839949660612
78.8394340450065
79.3237690077535
79.7727242048498
80.2262951190986
80.6640134055136
81.0201706797188
81.3947039952607
81.70895774763
81.9428826446039
82.2655466386884
82.5928735640312
82.7909200808049
82.9203522560847
83.0569846320833
83.2394378992912
83.4179654420642
83.582032188744
83.6672714241968
83.7207004316712
83.785724980259
83.8887387687865
84.1042899612861
84.2495115260829
84.0549999532819
83.3745509780215
82.4529840004748
81.99674200633
82.2928933360998
82.9578452724801
83.6243146276151
84.1929341895594
84.6071667330003
85.0651889713732
85.5671599368948
85.9006524037837
86.3110332012399
86.7819663093815
87.0842920648889
87.409689313693
87.8038438843765
88.192329333491
88.6605412133345
89.1139470977948
89.5513965549961
90.0052411159757
90.340470861166
90.6285738014257
91.0201382073856
91.4119015589687
91.8491885061277
92.2050049052373
92.1850170986801
91.7030349422006
90.6799684191639
88.892870885357
86.0818246087802
82.3814822090511
78.5166163818926
74.7267949616118
70.9865354214077
67.2525867244343
63.3199371731569
59.6780899602619
57.505128293904
57.083434016513
57.9097327554681
59.1790449371722
60.5747961318446
61.9715387266381
63.2141968197047
64.4040399232389
65.5342317087705
66.4297265790383
67.2302244955962
68.0509802822147
68.9158414855318
69.7328261150525
70.7052181779979
71.6443298463008
72.3993752305058
73.2140021941627
73.7882741189954
74.3281679546645
74.904810101346
75.0696714212587
75.1340241835504
75.3815273434435
75.6759977164964
76.0894105732478
76.5329305281008
76.6559512270096
76.7524685803515
77.1132863219774
78.2128875516807
78.3174108837018
78.3239715217404
78.3827991286158
78.816788707947
79.0622865615999
78.8039023130005
79.1954647262903
79.6741329085676
79.2072764607952
