1798
3999.43349933624
650.420452594757
1
128
4
97.5166513271133
97.4706909408242
97.4978747822732
97.5601338898765
97.6217192430379
97.591603074442
97.4657132527302
97.4330932607538
97.5289331531103
97.6101300895691
97.6201162360919
97.5342642913129
97.4981629380924
97.5628258620009
97.5909130391278
97.5532947643196
97.5195130308442
97.5170960454641
97.5485720693179
97.4927010293666
97.5270032172811
97.5907943686061
97.5935686156909
97.5846302575573
97.5662923870763
97.5265972971973
97.5218460225027
97.504666959329
97.5308348993193
97.5580707978008
97.523474883339
97.5312563477826
97.5510474991801
97.5359811169418
97.5846731706742
97.5743575656979
97.6015317114276
97.5998047295175
97.5166224278312
97.5059255189441
97.5788756171791
97.5521128643462
97.4626221025556
97.4503423412085
97.5308621148052
97.5760197739719
97.5958931942965
97.5857897153882
97.5054322417107
97.4882924155969
97.5507521622905
97.5886328906196
97.5935186601434
97.557841822337
97.5990996854702
97.5926435592255
97.5290467763541
97.5229698536178
97.5713577581848
97.4714982135468
97.3122537486098
97.4703078115587
97.6184944820987
97.5864310482416
97.6086432687028
97.5706339526799
97.506718658447
97.4608501670201
97.4646044675147
97.5900644183483
97.6958242427838
97.6090285528215
97.6071714733532
97.5865625894855
97.6736266530399
97.6960191206676
97.4718347651817
97.1454946931101
97.3153866993007
97.6417752025181
97.7524772659741
97.7449995530887
97.6263512547975
97.543042135925
97.4338121054305
97.3184860003394
97.3932730674993
97.5362198539643
97.6883996810763
97.7801180153176
97.7287510711947
97.6195159986542
97.6163771761108
97.6343813492702
97.527380229295
97.4015680697197
97.412811165043
97.4317593478517
97.5334284206548
97.6533330259562
97.6809673096218
97.664378090055
97.5654835167159
97.5488251084096
97.5333808880772
97.3939564524252
97.4746225708627
97.6830722640912
97.7211002842091
97.6902802723309
97.6897034623958
97.6645094257193
97.60851333853
97.5580388298408
97.4861992482041
97.4274829462826
97.4684000235181
97.5219588727044
97.5849588547568
97.6484441738825
97.6372206135556
97.5665194121463
97.4974510673655
97.4813635014956
97.5005857393326
97.5540856547201
97.6230651791355
97.5673626498017
97.5240479982861
97.5807814776991
97.5868847314361
97.5157681128703
97.4122608188827
97.5157382833248
97.614612575328
97.5400783148452
97.4628115726799
97.6784888596025
97.7132084640531
97.6517969714722
97.5953280627987
97.5379083589814
97.6016989709976
97.6577587436209
97.6466050290191
97.5621403672176
97.5458212279213
97.5578426002706
97.5496216621187
97.5815004250869
97.6132027113376
97.6159551821277
97.5837388742063
97.56463225414
97.5684196580975
97.6050169313384
97.6266849539819
97.6216429244625
97.595134029062
97.495784705768
97.5207585962523
97.5630170428976
97.5529101547695
97.563617379381
97.5250492037335
97.5111439060553
97.5528293112528
97.5263428064821
97.529944276736
97.5545389970955
97.5734271849749
97.5567935065951
97.556628521131
97.4305635485322
97.4279066344152
97.3672611929513
97.4074873103916
97.6497197338489
97.7294113892639
97.6649512901104
97.5814896884189
97.5513132489117
97.531206379096
97.3770778717964
97.2407980699454
97.2638508138332
97.3354086067255
97.3880884688705
97.3756257522635
97.4848974345191
97.555179942963
97.5390059007784
97.5811232253996
97.6097595629494
97.5604562655341
97.4137441813544
97.3359557455795
97.3439149255938
97.3376917908248
97.4039324806035
97.4734223314204
97.54818432316
97.5583575718514
97.4973768335243
97.4619218513759
97.4535153239866
97.4319751594261
97.4408814159565
97.4547336881889
97.52668447388
97.6449272912069
97.6115887160868
97.5769040613936
97.5181909027419
97.5179238110693
97.579468218096
97.6005650994748
97.5766669711635
97.4967575541155
97.4457439954694
97.422245977708
97.4778351456637
97.567798633011
97.5964231750245
97.6765974949474
97.6812163009036
97.5828253708341
97.5375801737337
97.4300401116211
97.306445567067
97.366461126552
97.3978284187959
97.3961957132782
97.4516557925294
97.5367953043935
97.5901890726786
97.5934628401681
97.5081496393226
97.494541141441
97.5603667913278
97.4810674564788
97.3671862552505
97.3637996890652
97.3772812895091
97.4144864501203
97.5084947960613
97.586100630248
97.598311421422
97.6113567119967
97.4951189567351
97.3678449544278
97.3818746519361
97.3443317702563
97.3474824874966
97.4886908516388
97.5863844239345
97.5882869679408
97.556307529629
97.5984945229232
97.5574446222731
97.4027478724381
97.4242128167709
97.5843206296464
97.5628394208837
97.5074319689629
97.6089171126307
97.6138691148263
97.5411621983192
97.4883650555099
97.4350597285933
97.4863074561371
97.5059320467097
97.5536559610784
97.7015915969632
97.7141562755113
97.6035913001798
97.5986296036731
97.5760027299603
97.6296340251991
97.7207682108982
97.6393127458389
97.456822851848
97.3888058076539
97.4543320198091
97.4851796242062
97.5448238265565
97.7132262161522
97.7055791054798
97.5774502040476
97.5560815913788
97.5684861467014
97.5581488537428
97.5665755998495
97.6008574088351
97.6425615373111
97.6293552432058
97.509469127549
97.3023788185608
97.2831106720673
97.385884260984
97.2930909773856
97.2051674345354
97.201493093671
97.1504187083576
97.2076095233218
97.2489674759203
97.1850721205404
97.2281256920372
97.2903576338133
97.2035612379428
97.249099105969
97.3843310312482
97.3430633092699
97.276951341176
97.3323957056078
97.3449230599062
97.2668381704194
97.3287002911733
97.4161304802277
97.3987527100995
97.4737728251816
97.5547656510946
97.5818486169611
97.5472672242852
97.4742183516158
97.5031221795031
97.5855599686396
97.589346411756
97.5458464912758
97.5563279111493
97.5028032455479
97.3803881748142
97.4452750899161
97.5295442958265
97.5053245450774
97.5250431029087
97.5563827869659
97.5394276109506
97.5018888003237
97.5383724402259
97.6603666703625
97.6363551756411
97.5283295728593
97.5403834390386
97.5630666048898
97.4746527761155
97.4217578106665
97.4409432277384
97.4790256754379
97.4587643191031
97.4571059805771
97.4634131868363
97.4420910975546
97.4591288880319
97.4716568223335
97.4148506051275
97.3733535952655
97.4478132361096
97.4769106392246
97.3751062868669
97.3819866902989
97.5123811202738
97.5904405641415
97.6031050935257
97.5615132387892
97.4855471805031
97.4875732118625
97.5063045170249
97.4636673187777
97.430720883809
97.4173505778111
97.4422618267991
97.5254766535335
97.5587082506476
97.5498780526825
97.5102252102019
97.4427906145827
97.393100527687
97.3783651936955
97.4030429389668
97.4512291670613
97.4547459184496
97.4669992991861
97.4873524795598
97.4583913831967
97.4530765061605
97.5436231617108
97.5702448006708
97.5060347673942
97.470574113925
97.4480281486913
97.4794241341505
97.5146054024137
97.5009104762137
97.4798635606331
97.4333156291728
97.439275108027
97.464672817537
97.5170375692799
97.5376099386937
97.4832538279821
97.4666960577551
97.4836053905583
97.4609704624635
97.4611431148509
97.496572230924
97.555976212968
97.5673049352152
97.4971494846384
97.4637429663032
97.4291733630957
97.4403998231856
97.5267858758737
97.5137229891607
97.4888953570036
97.5083767506833
97.4680404377112
97.4551850712157
97.5222773830594
97.5267299224625
97.4989085004292
97.4847301593819
97.4885930273017
97.5119010791952
97.503933896419
97.4787019934156
97.4806423871434
97.4704853487493
97.4891141594189
97.550040138488
97.5749013530362
97.578940633546
97.5350502906464
97.4869700046135
97.5615907424831
97.5413296551314
97.4934587599587
97.4933094649416
97.4113649285581
97.4314456189937
97.5270311227626
97.5351405377051
97.5026733330516
97.459308770756
97.4230325437556
97.4581715008139
97.5310465813097
97.4995351924678
97.4283403881439
97.491452136244
97.5397257208388
97.4995856975567
97.4874929555573
97.4581746667105
97.4793717742173
97.5430920601963
97.5432227135587
97.5104105789715
97.4899978422187
97.482151541207
97.4471933978128
97.3727601270498
97.4027635355054
97.4975570801392
97.5112713880814
97.4502233563507
97.4052337219844
97.3962684273571
97.3703057513408
97.3411693772912
97.399404320749
97.451498027684
97.4197674503289
97.3834443249744
97.3896992995888
97.3894911896295
97.4027030878993
97.4091427226102
97.3378227418744
97.2715573652085
97.2846223583493
97.3050669216956
97.2279652650495
97.1645290786617
97.2265566967021
97.2729687742169
97.3059544091987
97.363964193815
97.3786205764939
97.2905930703469
97.1738011761552
97.1478530665524
97.2234661458454
97.2764105007475
97.2285123023275
97.1845126735145
97.1779478788965
97.1605683032662
97.2187848655254
97.2788983048599
97.2487228383237
97.224925095913
97.2243695829174
97.1754211675991
97.1824612522062
97.1876908029344
97.1562710506501
97.1882527924041
97.1768142128692
97.1628688680952
97.2281236682098
97.2912033079822
97.3725520253672
97.4413109337315
97.4529330413477
97.4047940186601
97.3239495940354
97.3318456820165
97.4455298884869
97.4693812157867
97.3909131103987
97.3581430787198
97.3590683159304
97.3214110064794
97.2776368470462
97.2360034846356
97.1921799327766
97.1540088541665
97.1484094832043
97.1545567169679
97.0986127756914
97.0808234489786
97.0957876060037
97.0569514631494
97.0422027744404
97.0323306845506
96.9964245492714
96.9270992376484
96.894780143892
96.9031148578868
96.9354092446043
96.9698680045273
96.8931807644541
96.8178916463355
96.7777816665209
96.6770780791052
96.615414964228
96.590542277006
96.5209443990044
96.433966137334
96.299527034841
96.1795433019014
96.1591520258122
96.1477003887092
96.1226922114621
96.1431476317465
96.150703403183
96.1460579361286
96.1842857389191
96.2156259184644
96.2982853493977
96.4033266908226
96.4674590388
96.5607046188809
96.633720929065
96.6605733694222
96.7308769280391
96.8037609648773
96.8513239424196
96.900232950684
96.9448747768373
96.960311206018
96.9303515328077
96.9326188952053
96.9363662346434
96.9317202258797
96.9765628490608
97.0245074550273
97.020014371285
96.9577773688259
96.9135217537542
96.8597373236705
96.81019741067
96.7933287235436
96.7320159791621
96.6915408083799
96.7075396504474
96.6899635501351
96.6859203422923
96.7462821409547
96.7856012590292
96.7927338519273
96.8314770418831
96.8577717931414
96.8682982761755
96.8774866697523
96.8587421253252
96.8614281674493
96.9103581045824
96.9425514508606
96.9492614383928
96.9502907455887
96.9591018863161
96.9491751637797
96.974685576801
97.0029934005496
97.0376747478989
97.0720237719711
97.0152750870443
97.0112769366825
97.0553097759163
97.0546441978331
97.0633410729387
97.0950011227681
97.0853184380329
97.0383423159564
97.0255511899601
97.0207268042031
97.0570756892068
97.1000338315594
97.1262842062485
97.1648583443714
97.1903525428532
97.2116968196625
97.2376855309389
97.2368247475156
97.216387873913
97.2069069218766
97.1967444238785
97.2150144689332
97.2847058437751
97.3375206998607
97.3554995979632
97.3281089782226
97.2878546311464
97.2584096646566
97.2339906103831
97.2685137708752
97.3082294907081
97.2866968481296
97.2710704677517
97.2933119253873
97.2912951940367
97.2638868215922
97.2953407806081
97.3404652911292
97.3400371034351
97.326081207489
97.288768760513
97.2737621687179
97.3114080705332
97.3136423146565
97.2937919237165
97.3401294751497
97.4050961210689
97.3906804671817
97.3706944642649
97.3904410310649
97.3870734134334
97.3533605118574
97.3695165812379
97.4059122693655
97.4016208231508
97.3727591065387
97.3579032277413
97.3573278877438
97.3386587094725
97.337913969768
97.3624188242956
97.380423965013
97.4144353840972
97.3996141965913
97.3450649623134
97.3401449328966
97.36609694261
97.381726856634
97.3755336706208
97.4100499779291
97.4264719381097
97.3724388065128
97.3701576827031
97.406512155535
97.432646942904
97.4217027557261
97.3900146185859
97.4301108247488
97.4713472570653
97.4805291449634
97.473469120553
97.4486199044816
97.4507898094873
97.4521880681148
97.3947833633104
97.372670582664
97.4170031394508
97.4626147730136
97.4826410497111
97.4679831646709
97.4710107546665
97.4717929658246
97.4770909914459
97.5065717203186
97.4916949495939
97.4381925557226
97.4209480182233
97.448399875661
97.4758573982602
97.4525533699648
97.4538542221537
97.5039017478965
97.4854676927535
97.4525665355319
97.4504138755588
97.4450330996764
97.4214600800309
97.3990297606563
97.3853933565386
97.381883620024
97.3898712641721
97.3859347212533
97.3798004030525
97.3757054875486
97.3990941911253
97.4089062297282
97.3500644789033
97.3498907559244
97.3951142673001
97.3784860569524
97.36873832857
97.3672763456382
97.3282161086453
97.3628433732675
97.4035946784492
97.3803258983849
97.3496022335639
97.330623037615
97.3609111279572
97.4030305578413
97.4499890782418
97.4575271296982
97.4050361650839
97.3887096645466
97.4294127194995
97.4474990649808
97.4183858940044
97.4742852871109
97.5092131664374
97.5034814791931
97.5228825251137
97.4752834465857
97.4498436704994
97.4720933331376
97.4782283080289
97.467019312412
97.4574640142162
97.488741057117
97.5020333290212
97.5357432206472
97.5255556311778
97.4462954868654
97.4158356665477
97.440005117261
97.5032568175177
97.562920993374
97.5637316359016
97.5518707489491
97.4943889997628
97.4315552400863
97.4646962427219
97.5051792044654
97.5527387955286
97.567105049703
97.5265843204066
97.4920899934837
97.4903827348723
97.5513056678085
97.5995862804848
97.5198441826569
97.4497499439528
97.4670950578033
97.5229017147611
97.552967116682
97.5742368069302
97.6131728943029
97.6330233912032
97.6376473224679
97.6220370450227
97.6033842236301
97.5424247924617
97.5295339757231
97.5953675621949
97.5624354995188
97.5600860604491
97.6582947986049
97.641125240497
97.5610973696238
97.5528517302058
97.6402399043119
97.6897090382584
97.5866138332433
97.488789268229
97.4804883350679
97.5703812628114
97.6309803207576
97.6230658084573
97.5353960139212
97.5067708974981
97.5777680577009
97.5956741534436
97.5601435075263
97.5698491052878
97.5833975708873
97.5958223936075
97.6367061055745
97.6720986108017
97.6970500729177
97.6788686330994
97.6798510832029
97.6767923153448
97.6839395529208
97.7228978259194
97.700730611003
97.6602913370122
97.6510310085073
97.6091037084807
97.5786089946095
97.5670712634403
97.6300065241969
97.6820520447311
97.648513317605
97.6065764469885
97.6007224944311
97.6681452833713
97.7061776126627
97.6589270877467
97.6066350783559
97.645466317279
97.7639379911369
97.8176205003964
97.7308831408072
97.60871182911
97.5595696422659
97.5441572098618
97.6083605764113
97.6405700557588
97.6465457125125
97.6927333249813
97.7231601629569
97.713841617239
97.6473521692191
97.6338461422642
97.6335223750442
97.6036906540363
97.6461908901787
97.6786915202364
97.7174075191925
97.7403517855144
97.6800177029129
97.6412777853109
97.6500450249517
97.6231864604122
97.6025063033002
97.6398580205345
97.6873491643984
97.6554129769171
97.6164059478243
97.6321324564837
97.6008389646279
97.5679161228705
97.5739433917413
97.5697255413336
97.6232937482315
97.7283213467974
97.716252138314
97.6410063642317
97.5966024388745
97.5942386088524
97.6306951465608
97.6326687332263
97.6515870961186
97.7011093725231
97.722181240193
97.6780024091229
97.6523757251189
97.6579217225298
97.6422217263099
97.5668651591411
97.5141366018312
97.5087257845493
97.5675812182578
97.6730740737095
97.6986186347381
97.6676226577384
97.6395352609312
97.5998334882171
97.6048858024428
97.6534395649022
97.612764741267
97.4731893945346
97.3675477791691
97.4025771066884
97.4840351634234
97.4858873244412
97.5171566232068
97.6154663988386
97.6452696435343
97.6474127226125
97.674810630527
97.6983967977479
97.6549596845453
97.5454226811943
97.5036109943011
97.6036782471617
97.6703181876254
97.6320187472189
97.583140300912
97.5217364852614
97.4707255426536
97.4959900584562
97.5762182714986
97.6475468142162
97.6743571325278
97.61451470859
97.6241590122154
97.7098890973525
97.723618348927
97.6609720318047
97.6270517497759
97.6227231334001
97.7198748004264
97.798508086159
97.8994561536547
98.0105148316392
97.9816017538926
97.9021018129459
97.8995946181569
97.9609658681068
98.0719455233896
98.0362308517722
97.9621381928589
97.8817153121079
97.7893444388357
97.780117954163
97.8403927718364
97.8625012038398
97.9098966131844
97.9896253295124
98.0721186162839
98.0987405865571
98.0645824520394
98.0249384291278
98.0024297203535
97.9505993009867
97.961332143205
98.1464935408281
98.1607312473119
98.0375768875636
98.1067243659826
98.2676777049788
98.2286596083436
98.1427555175457
98.3366767144408
98.4885288432749
98.2857744234091
98.1584298385099
98.206140353352
98.0130008263518
97.9632732451159
98.2060011975154
98.4035982001859
98.2731224923247
98.3025036330485
98.3570013507658
98.1843280116073
98.3373735633044
98.5596322420629
98.3995419865625
98.397393346871
98.4421735777294
98.4928092836409
98.6122638092186
98.4947396025768
98.4046475235004
98.378095561812
98.3184257626928
98.3441827477568
98.2807856442318
98.5063961159337
99.0596885608116
99.1566961453874
98.8355734146948
98.6598616897375
98.7749528078811
98.655051070845
98.479157775109
98.3602596842285
98.3555053975915
98.3834078339698
98.1852151679134
98.1588208131707
98.2733991898061
98.3690192259956
98.4397077075885
98.3201892725487
98.1026192233765
97.9683868539332
98.0150779335762
98.1418548636573
98.0660404179315
97.9703688305772
97.9946355038766
97.9473475676125
97.9840168542249
97.9950384048722
97.9317932127876
97.9331500495764
97.9785506109379
98.0316409162691
98.0566701427296
98.0310721932519
97.8545904483573
97.8520214304222
98.0261189927516
98.0445711195442
98.0158627326597
98.0615664977594
98.1370321106795
98.1346168068212
97.9524546145014
97.95815984484
98.0729025102426
97.9964634221109
97.9079155856978
97.9961934719235
98.0358945127188
98.0530195368558
98.1676052882211
98.2893681335068
98.3494409252524
98.1850423727853
98.103306412039
98.2939421767385
98.342336685687
98.3083907808341
98.2211813385504
98.1839053993076
98.4483162806613
98.5654809888652
98.580690425068
98.6339122028032
98.5669699922292
98.6740272011805
98.9831746443719
99.2167859303128
98.884605265626
98.4537854706403
98.2554559359893
98.1811135667883
98.0303232090765
98.17627864449
98.5779588788858
98.8784215226623
98.9558702704765
98.8198699512136
98.8954193696084
98.8793100838312
98.4729819651538
98.4253881224593
98.6127342533652
98.6802517157021
98.6495866711805
98.813674028064
98.8744333966667
98.8970625950132
98.6642866639558
98.2697028288934
98.1466372988618
98.4640257329959
98.6223761829529
98.4447040867273
98.2953988842461
98.3054750204395
98.4043342918493
98.3312309671414
98.2295162598207
98.474107820954
98.6690759449577
98.6038802966882
98.6777657485363
98.7656937956659
98.719142767063
98.609427492216
98.3415647396606
98.1951505130337
98.3299824725413
98.330238858296
98.2121073024277
98.1183656399037
98.2187958318381
98.3351131902762
98.2654219454174
98.1426942361506
98.1151472043404
98.1598184861021
98.277514180197
98.2773677794175
98.1173824670407
98.0938502110402
98.21192086851
98.2467679625017
98.2448215784965
98.3441954290898
98.3489722553971
98.3209521170682
98.2613743989729
98.2557866868567
98.3953133365857
98.3855677704027
98.2943078447303
98.2845607047497
98.3256106414611
98.4180509293731
98.4635593181421
98.4105977669308
98.439460381057
98.4498299962562
98.3832849849092
98.4019467278569
98.420914942096
98.4095701761803
98.4575812183028
98.550312977516
98.4914416015656
98.3763494534234
98.4412801489421
98.543097574327
98.4866901701043
98.4028140835599
98.4081171977538
98.4364903304792
98.462788767768
98.491951646818
98.3830534947318
98.3038079195862
98.3831474404165
98.4323573836636
98.4186789839794
98.450701999055
98.5053527694404
98.4338067427615
98.3393553782612
98.3468275325781
98.3703676128667
98.3979404077988
98.3368632614337
98.348539418489
98.3593040799249
98.3228147337143
98.277849821979
98.2798760657215
98.2794963095899
98.2530438298501
98.2427385825087
98.2365888484323
98.165798995099
98.1902714956451
98.1315487807278
98.1173219406526
98.1707263075435
98.2209595861735
98.2363056379271
98.2685744601432
98.2709264928069
98.2563488403173
98.2219499744295
98.2124097431246
98.2034696264725
98.2519728805686
98.2727672332128
98.2401702453435
98.2172546907948
98.2294149494425
98.2658492868679
98.3006522570621
98.231642263007
98.26523119132
98.3181675669932
98.3224275615382
98.2854247445094
98.3323106036521
98.3608372786532
98.3257315760935
98.2740082323697
98.3255743181496
98.3556493624769
98.3123945124811
98.3050466372328
98.288690881461
98.2902867796505
98.3343988635258
98.3188952086767
98.1972808895385
98.1505341240516
98.0944044019562
97.98182753553
97.8684129608708
97.6875308895554
97.3574603582904
96.8355750813274
96.2782189359395
95.548740268008
94.6868561047148
93.6584428840805
92.4890256364494
91.6282578589205
90.7386412855559
89.3855394472378
88.1659242131822
87.1799767825247
86.2581295378694
85.3785093803524
84.3960392647625
83.4263248039858
82.6628954953822
81.9550963294568
80.9277803513855
80.0385475329274
79.5885064289647
79.5823030671373
79.8020908296691
80.2836232118801
81.0598266525677
81.5128765376323
82.2251671622914
83.8210955300385
84.3315023259855
85.3335918280448
86.2071177324945
86.4947314260658
86.9984703689825
87.5052032971761
87.6072978315988
88.0689860406038
89.0543947835233
89.2222784450537
89.4138779138583
89.5128279866214
90.0278361615149
90.6163528136752
90.6702792191487
91.0270313061051
91.7227881688366
91.8940344824961
91.8665226010036
92.3027257563392
92.7515636125084
92.8884411308807
92.8241235968626
92.4547780136228
93.3451601702176
94.2541822970875
93.8852391885516
93.6570878249918
94.2098095873501
94.4315516157153
94.3721368438573
94.349665897182
94.2505855858715
94.358788461153
94.9436033172561
95.0509480419492
94.9335780610037
94.877526718161
94.9993037534369
95.0574799785006
95.1622794477723
95.3462054058555
95.2493220645944
95.0673568808799
95.2095094619785
95.2437569138013
95.1344519116128
95.1536022875516
95.3054107492284
95.5114608453167
95.6158315346038
95.7477717822643
95.8990401006309
95.9898587121906
96.0260530749457
96.0962698041778
96.1415376440181
96.1760080004
96.159516015263
96.1410627435196
96.0762193023599
95.9309219401994
95.62953000331
95.2867666664752
94.9782655340776
94.999748211998
95.4983760413887
95.7151700828107
95.7299351899514
96.007930223468
96.2633714538688
96.3132179850937
96.4147977181496
96.3221479948373
96.0974405356864
96.6426756576787
96.812481704271
96.7396877805151
96.763474216546
96.739056956394
96.8377030229138
96.8109956737499
96.740551242278
96.7884309553454
96.8198524663943
96.9609825774793
97.1261368181998
97.0336700465318
96.9163597783004
96.995922921312
96.9596672544441
96.860627408368
96.8258155567301
96.8591246599507
96.8330168773619
96.98799785503
97.083257185292
97.0644053148403
97.1006859803442
97.0095687138903
96.7916406245426
96.3792647283343
95.544294342696
94.7377154596594
94.7777480598848
95.1900571447956
95.7849763382573
96.3443420290694
96.8100429903356
97.0966473796649
97.1566816925003
97.1304849960835
97.1298718773282
97.0761152980285
96.9926526438549
96.8508494329005
96.6786623900748
96.5098246296854
96.2637532775105
95.9896243484031
95.6573035378749
95.3050959173099
95.3088301372185
95.441061884586
95.5858305685153
95.7147270992207
95.7422344629425
95.6045079245153
95.4650509461292
95.3990246346306
95.4499888007038
95.3605155654861
95.3272110976289
95.3177457067994
95.4331972024502
95.5754396479873
95.6071760034701
95.6411038558553
95.7100541642039
95.7352109772494
95.902715185585
96.2225177117284
96.3857903493543
96.564395916635
96.7743333054395
96.9575714153344
97.0425941840888
97.0465255304551
96.9924694865424
96.7811578882295
96.2581729879904
95.3528172392917
94.0633242425237
92.5150565505379
91.0775827531026
90.3266331812962
90.4001142121093
91.2169894625398
92.2747592797347
93.0660613468772
93.7634093092379
94.376894493767
94.7241526158124
95.0722544216505
95.2797176532639
95.3293334764675
95.3317753417937
95.3809553164391
95.4237670289039
95.4350998567261
95.4648584211513
95.4814374453296
95.4650133502945
95.355473002893
95.2559464206113
95.19037060132
95.1783762735117
95.3373517578585
95.6022463398896
95.8675153370879
96.1507724700325
96.3844783372238
96.4985338765803
96.5027970099617
96.4331784569603
96.258307207518
95.8898224616698
95.2231567646414
94.1872464015313
92.7909945095569
91.2708067886604
89.9935067250311
89.3757420887956
89.7377730542332
90.8643729618561
92.3121528664668
93.7279007114544
94.8567122824929
95.5715419295434
95.9876580599208
96.1819693581494
96.2088918842559
96.1622759066866
96.0519260278685
95.9256118285098
95.7759823985532
95.5774066343455
95.3738317884071
95.1521997891981
94.8844845974135
94.6271648903353
94.3864145016487
94.1173614220555
93.7540078171156
93.2892426881943
92.749888740483
92.179067240199
91.6040422793678
91.0423886399781
90.5007990994425
89.9647003534232
89.4288890427439
88.8885712221124
88.3307913731785
87.7695386171635
87.2277375138944
86.6830740481413
86.1395596656353
85.6118146341898
85.0527506749531
84.4636516394193
83.8774635064607
83.2904566096666
82.7495362876204
82.2700906982696
81.8583784284651
81.5209551334323
81.2238232761466
80.9240160690876
80.5976421422452
80.2313436009561
79.8334040638928
79.4533485123171
79.1092400957501
78.8042706792224
78.5787700461562
78.4536850528226
78.4491460194694
78.5637604503569
78.7951391206027
79.1123321009116
79.4851671290792
79.8712820689363
80.2411692770864
80.6217363253702
81.0239465191503
81.4639360098476
81.9659183892359
82.5135514232839
83.0964006735574
83.6971598643531
84.2736853885042
84.8297593132825
85.3612517279099
85.8728199083304
86.4031763353142
86.9513845736984
87.4941950437573
88.012611130744
88.5208576355291
89.0296028222566
89.538653531883
90.0015975079518
90.3913597749649
90.7349541728278
91.021534388394
91.2258273756646
91.3511118601121
91.3900367100992
91.4067178023118
91.4523999272044
91.5589381451295
91.7907820494214
92.1706625175252
92.6191737706318
93.0327425665223
93.3729984145212
93.6064280660921
93.7242645784193
93.8021424416239
93.8485063641427
93.8292744667868
93.7233519956265
93.5346476835941
93.3133848167843
93.0374090257153
92.6793541880063
92.2428378429654
91.6929344600013
91.0176814497352
90.2172408779719
89.257470835254
88.1780716630785
87.0801232671266
86.066470445825
85.2012472473548
84.4748079840434
83.8809021401717
83.3902294606586
82.9678931430599
82.6407495821461
82.449126759802
82.416215836873
82.4862209880996
82.4915834221293
82.4035616199695
82.2509609250941
81.9319302140293
81.4354776438708
80.89488638036
80.4007619251747
79.9689494832928
79.6034363364965
79.3202924146833
79.1339151907513
79.0398355315941
79.0179349796193
79.0485645349957
79.103254259517
79.179007880489
79.2979826078934
79.5061011003517
79.8147446713901
80.2037433374728
80.6704382363544
81.1875041108571
81.7132400477667
82.2457681158676
82.7678439638184
83.2758206561865
83.7456343744743
84.1896058624698
84.6247523940857
85.0042422227354
85.3243839033566
85.5751318371725
85.7491372101552
85.8699866068033
85.9420239704529
85.9415712612557
85.9418592803531
85.9859208716364
86.0810254452407
86.2344325780001
86.479553795179
86.7920412113415
87.1369459144834
87.5412002973851
87.9690559269213
88.1554943562264
87.6070722878138
86.2309680899371
84.6750699960632
83.3663903500336
82.1798653906354
81.2475045306804
81.0127945931466
81.6090480127494
82.6367283621855
83.6308017837334
84.4412761370022
85.1093719714711
85.6623196867921
86.1084104144745
86.4604630112049
86.7769905428343
87.0823127728799
87.3572395788292
87.5622233127065
87.6875503209055
87.7737959532287
87.873384413278
87.9847704464714
88.1033407538796
88.1428708539989
88.0682984532514
87.8733392472398
87.5533219785585
87.143890862985
86.7614675442912
86.5266310929653
86.4919625160264
86.6328710064017
86.8794554259164
87.1541095583443
87.4325838897164
87.7348259724341
88.0460488340428
88.2998475615169
88.485669393854
88.6822320917105
88.9002394736535
89.1136580647163
89.2615041958875
89.3659895789199
89.483025851331
89.6097767778956
89.752598218594
89.8813816732914
89.9902239695149
90.063841318477
90.1479256191697
90.2410292710726
90.3476898018469
90.4477930144457
90.5652788219825
90.6861809714178
90.7911260723426
90.8841195849784
90.9619980866682
91.0220857903756
91.0482893003668
91.0258670643183
90.9701018446812
90.9229520577868
90.8061929706001
90.6561099961744
90.5551719480497
90.4649971785742
90.3980945700677
90.4259079954593
90.5322109267488
90.6117074277219
90.6729895753851
90.7601063346447
90.7610629614944
90.6857942637612
90.5222319909416
90.1290920992005
89.5986026719019
88.9138328688041
87.9923230324828
86.5636710164514
85.0759739623229
84.8103540650814
85.7178129061881
86.7089333760566
87.4340428764134
87.900453396756
88.16966261925
88.3226829644671
88.3800149502429
88.3715161441114
88.2645297929622
88.0966484929485
87.8696722207584
87.6181328369852
87.4599515773469
87.4799183931993
87.669695316096
87.9335382844036
88.2141662658024
88.4592925445978
88.7491247435703
89.0442764793162
89.2273531894943
89.4621659484546
89.7177710196699
89.881910964896
90.0212703495354
90.1974051605515
90.35037555505
90.4217445278289
90.4780501919603
90.5803151288031
90.6518277722901
90.717165399711
90.7787815330114
90.8416339988553
90.9239130594961
91.0065030170598
91.1231911694311
91.2123333398897
91.0907987817762
90.609549680308
90.0131150820946
89.7857486376709
89.980801966206
90.3638290642253
90.7149000786168
91.0725916223709
91.3790533806285
91.6416313543289
91.9163712932305
92.1242011130495
92.4445107570706
92.7323039254096
92.8527041170113
93.116871780293
93.3841393479914
93.5753316364882
93.8424114709053
94.1397688194822
94.3722477083687
94.5748411511906
94.694602770262
94.8794816163975
95.0703779486146
95.3105890181092
95.5730399344515
95.7395074960644
95.7314026079123
95.3710950571371
94.7432406710922
93.7136583790256
91.9989606995419
89.8439786009983
87.6680856867062
85.6049616353107
83.433109925628
81.2774046279756
79.0813765656394
77.021613786592
75.7280269892609
75.3767443241446
75.8570303592471
76.4959244942025
77.0998251932485
77.8670845786107
78.6167180628013
79.2607248068666
79.8960803741185
80.3954224254454
80.8847459670014
81.3758205897961
81.7293647285593
82.1746118410378
82.9333699129395
83.6609093527177
84.1101586050671
84.5749592320434
84.6835775252512
84.79280148532
85.3429798715624
85.686850607344
85.7760649550011
85.9030488689434
85.9404434626099
86.0542978106312
86.542624748162
86.7597143008488
86.6237446919021
86.8681240738333
87.3391584819701
87.3886792938029
87.5602399204759
87.6120137720449
87.8358826113841
87.8972148706707
87.8966723898524
88.0673084289187
88.0626489234003
87.941006693179
