1798
3999.43349933624
650.420452594757
1
128
4
96.6142471416218
96.640364347356
96.6708925401378
96.6990471979344
96.7457647671219
96.7214793643486
96.6526640115923
96.5887233467043
96.5323110482611
96.6088652228598
96.6669845586136
96.6109469188328
96.5841108807835
96.6552089004639
96.7653938851188
96.7123527422067
96.6222324277868
96.5849076625768
96.5848934969698
96.6310815430837
96.6461500072977
96.6368833223777
96.6228540991609
96.5940231408052
96.5932437060723
96.6107584196977
96.6591672096186
96.718913910909
96.6851842479429
96.6347378405431
96.6587764747946
96.6505792886528
96.6340115634665
96.6405984064559
96.629846569608
96.6536638810217
96.6412341046467
96.609786007657
96.6287585596952
96.6547389880147
96.6423509762472
96.6404334396785
96.6060379156778
96.6320576447394
96.7462506610056
96.7320117963802
96.6652142256164
96.6319401472181
96.5841404905812
96.4914672646004
96.4918841394047
96.5756725724747
96.6030260418596
96.7008565890349
96.7976537064264
96.7624777076532
96.6787077786173
96.6843504589196
96.6889298472928
96.5969526037608
96.6612520952541
96.7229430381787
96.5632573643489
96.5693447358231
96.7275902750791
96.713429872508
96.660691841538
96.6662709320761
96.5387038725462
96.640096574213
96.7115473719228
96.6768758907487
96.6979362925606
96.7614842164051
96.7641847753235
96.6997578233533
96.4901107160544
96.3537813455212
96.7052588310688
96.8411066116344
96.8395783220247
96.8221351891025
96.7337815731981
96.6290571147133
96.5445461626421
96.4635594177499
96.5782396163761
96.764108598253
96.8540490208931
96.8220250551542
96.7279873629581
96.6529500880207
96.7447700465564
96.699281925748
96.5303337969738
96.6488506774432
96.6354787544248
96.5480505392242
96.6487925932222
96.7722573680704
96.7609526018857
96.5813125456384
96.5129550047266
96.7133403724404
96.6099938310076
96.5338627431294
96.7998231430545
96.8252840860966
96.7705066995623
96.7513178752863
96.6821835691319
96.6214232002017
96.6186863915528
96.6000160366569
96.5358833768768
96.5550621277658
96.5819557090197
96.6296389291459
96.7188808988957
96.7410754240089
96.7097054882545
96.5790942265942
96.5642047331463
96.6236193037739
96.5749530947427
96.6480342346252
96.6754258016533
96.6122784494863
96.6844050181038
96.7279683919155
96.5841270533167
96.3828712821056
96.2954569838752
96.5502407241857
96.80411184106
96.5812867668912
96.699321104231
96.9176455290785
96.9155199775708
96.799251657713
96.6899392156075
96.6294597953184
96.5880310482326
96.719335757514
96.806800016805
96.7481947391126
96.7537161780247
96.7106783836657
96.6196569338641
96.597883355158
96.6494005540598
96.6916195609277
96.5854830674584
96.5177651387416
96.6553707971725
96.7319197570289
96.731927718331
96.7333857917222
96.7353821778398
96.7487344693358
96.7439342633243
96.7343221853685
96.7636344083546
96.6871828437368
96.5234828574565
96.4627846894303
96.6229345898043
96.7516657985203
96.8237248702686
96.8328346912058
96.77265759336
96.601286312667
96.3557850317162
96.3939042312162
96.563037968219
96.6870906855388
96.8038587697173
96.8485515636496
96.8640058362437
96.8190433588414
96.7083928046103
96.579904126046
96.4217823814839
96.4577755318997
96.6803418910636
96.6099558022659
96.4241994724908
96.4353074486981
96.6427691871619
96.7939859295528
96.7206020062293
96.5793266106184
96.5322694062968
96.5827876510885
96.5410348964862
96.4090782849909
96.3732672772718
96.3214320190982
96.486493114615
96.779908517685
96.825035574356
96.7206384266889
96.605561099761
96.5136751442926
96.5043372857111
96.584971316726
96.7053169902645
96.7177503752574
96.6533009947631
96.6236601041224
96.6289121112915
96.6469751469443
96.70304397839
96.626945916811
96.6413601753351
96.5965141363487
96.5640040839273
96.6744630804969
96.6790241800151
96.5798238263616
96.6238653505235
96.8211749832586
96.8840762516048
96.7690370035068
96.6448849634715
96.6199326596583
96.682130201442
96.7095632755172
96.7027667848155
96.7275975291203
96.6383320536525
96.5771421627168
96.6222170742125
96.6675703120683
96.7578920525012
96.8298229874721
96.8034738126264
96.6077130420249
96.5326095520265
96.6110423858418
96.541993119078
96.478163229847
96.7045073575841
96.8040920001951
96.7856544142281
96.711962101986
96.5386228964024
96.556618056298
96.7477989116
96.7055107686303
96.6602387062859
96.6737433228715
96.7318848923314
96.6861988649624
96.6012008436168
96.6557452961437
96.7311959344
96.6210673155835
96.5627125347737
96.676732299746
96.749928443316
96.6669707857773
96.6751563575856
96.7123685638682
96.6879171435232
96.779656065766
96.7651867609902
96.6201055752903
96.6706112396776
96.6582262950649
96.5838649094793
96.6587090993345
96.7303965328268
96.7584632270669
96.7315095817559
96.6197473030977
96.6283161982246
96.6535481972156
96.7844630536586
96.9177047175032
96.8308966400533
96.6552734957644
96.5566818925921
96.5559446630865
96.5665534576369
96.5754375266705
96.6341153535525
96.7498945537373
96.8686906497516
96.8289621532695
96.6695351058904
96.5865822593155
96.6207163877806
96.6048912797218
96.5271117978205
96.4746149959355
96.4111314125523
96.3562308500296
96.3593952893987
96.4594238631539
96.484293155912
96.4488280194423
96.4091572884066
96.3566608880983
96.4559587967185
96.5439491831634
96.4850181806758
96.4244003505042
96.4172254232737
96.3714587377721
96.3493688844093
96.3804140984607
96.3048882950736
96.3436880716698
96.4694029531906
96.4609024037626
96.3984794999863
96.4367368221212
96.4924124719483
96.4731712709357
96.4730339512156
96.5168090642424
96.521812769605
96.533261843372
96.5538011395815
96.568042664269
96.6062341950719
96.5839436963252
96.5865324479091
96.6328530253421
96.5924299902496
96.5893589871962
96.6156263376767
96.5731219859693
96.5727475872142
96.5692486834044
96.5535029454072
96.5686902759124
96.5644822224444
96.5870176698825
96.5756868248515
96.5545463506949
96.551178701493
96.555215721065
96.5571087437112
96.5130605623275
96.4671705296885
96.4615602215735
96.4931465682131
96.5711797605514
96.6158315373512
96.5653778851084
96.5339335003074
96.5748513593633
96.5893026654229
96.6169899047776
96.6075701304465
96.5716725895755
96.5535086477205
96.5027911162666
96.4809055613445
96.5302159249641
96.5878240864923
96.5840092603125
96.5706124833306
96.5715100105361
96.5736141187885
96.511833010717
96.510799707621
96.57409862428
96.6176541108915
96.6133419479563
96.6083515713403
96.6133975194427
96.6086418785657
96.6250699121555
96.591910643742
96.5268585984045
96.4763225568696
96.4893949531043
96.5436581638144
96.5046290818937
96.4713658212327
96.5402186119405
96.5382927828992
96.4870587300947
96.5210499131853
96.5933860521682
96.6109284980275
96.5388581033684
96.5521366379074
96.619420828235
96.6607446902759
96.6644172851992
96.6251425425317
96.5640124606146
96.5575777103035
96.5864815863879
96.5970894287474
96.5897876627743
96.569647105175
96.5290450205597
96.4967144977914
96.4935754755464
96.5821224940454
96.6543502767342
96.6256841424366
96.5401570138246
96.4917522999223
96.5086520279988
96.6018761483935
96.6293467639424
96.6505584663055
96.6049126120712
96.5570681421191
96.5610676113285
96.594766810178
96.627939819773
96.6220494304444
96.6228833985742
96.6276610760666
96.5515109326822
96.5167159926672
96.5864217868806
96.6519630916079
96.6329297823236
96.5562105506
96.5489425558379
96.5627753100957
96.5928274388179
96.631883169263
96.6032752901492
96.5811819144809
96.6540513643959
96.7195951817874
96.6931629238449
96.6088277765402
96.5699274632806
96.5742290201216
96.5845773665355
96.6051314019238
96.5674213167202
96.5480145719992
96.5690868747808
96.6358857375523
96.6472505031599
96.5612147520083
96.5589285245989
96.6329593578775
96.6480020745015
96.5903656194369
96.5771192439477
96.5949381040107
96.5631419416639
96.5206792502372
96.518290232755
96.5998617296182
96.6494348397859
96.5506730009084
96.5143942417786
96.558711265264
96.5720447966329
96.5864360241366
96.6025692431486
96.5637145227182
96.4657464445905
96.4620047918173
96.5339374482603
96.5223224160406
96.4382509486472
96.4210786350674
96.5046513151475
96.5454104265053
96.4685785228241
96.4023042325196
96.4372708559241
96.4597965152076
96.4236682081304
96.4079751674894
96.3938752403326
96.3869233952706
96.3461038659777
96.3205884852173
96.3807331367109
96.4127949485891
96.3952121049319
96.4043775255608
96.4074938580028
96.3839956829832
96.3656742655327
96.3399975646115
96.3433054971195
96.3308266745381
96.2951351662774
96.3285759621087
96.403671064338
96.3863432168489
96.2882057652622
96.2520699035649
96.2601718011168
96.2763896572059
96.2629592604281
96.2537862641592
96.2732456250571
96.217832287395
96.1631514271714
96.2165956214777
96.2587527293618
96.2572760230416
96.2806149196077
96.3359656235794
96.3812150158976
96.3574591491679
96.361021124143
96.3941471517589
96.3895750074711
96.4003263700589
96.4451645994915
96.4833086608385
96.4604490888148
96.4321585324575
96.3954954663234
96.3840543777342
96.4154885974109
96.401846159191
96.3700881238058
96.3412420161877
96.2894828028055
96.240801704143
96.2399187528033
96.2444281412937
96.2060221170842
96.1698862021196
96.1056231146445
96.0405163284548
96.0520884639073
96.0783634119235
96.0672278305589
96.0071936138348
95.9590527190967
95.9815006115926
95.9193112014559
95.8413290505578
95.844578852507
95.8341935627179
95.7908583592578
95.7304225105982
95.6497037788188
95.5857525546522
95.5198665186017
95.380417661351
95.2407610109149
95.2286592458041
95.2304481991112
95.1272290625726
95.0699718934288
95.1134321806265
95.1646528919149
95.1797091581109
95.1683275551387
95.2443889016631
95.3385018414895
95.3760822898172
95.4221007120824
95.4938709968436
95.5860843524496
95.635281335347
95.6978891456621
95.7619756293707
95.7757222545116
95.7642931277096
95.7720751957056
95.8280429354852
95.8066148572793
95.7387993718749
95.748635459775
95.6763777933553
95.5629304229947
95.4888249725012
95.3640620595432
95.2659353881127
95.1822319757932
95.1130090517968
95.0988385996048
95.0965316213838
95.1250484627189
95.1589377184595
95.1614198299245
95.2308163763053
95.2932403105358
95.3364630182639
95.4034869472631
95.4668369901881
95.4664273729502
95.4486200577471
95.4839561455033
95.5172964271816
95.5355307364607
95.555542736496
95.6002898564453
95.6927573754411
95.7341224468772
95.7272737247323
95.7856304471559
95.8052267161014
95.7755690329023
95.815490119556
95.8487001082746
95.8716332671898
95.9050328445672
95.9326787235207
95.9213301316264
95.8600515422695
95.8104657840653
95.7243458250843
95.6203338745669
95.5634624763653
95.4748227250368
95.415325912152
95.4710041533915
95.5580002417189
95.6155945825789
95.668670946658
95.7728210622605
95.8601044106413
95.903147358832
95.9895293835332
96.0832984493157
96.1182763650032
96.1052085892857
96.0962566085929
96.0884688889958
96.1189194825366
96.1376231813247
96.1159373468236
96.1270898050438
96.1641027229105
96.1509306313004
96.1043462027234
96.1025693866113
96.1424926888793
96.1579267659527
96.1429496112806
96.1439790540503
96.1734530152508
96.1912647506132
96.2078084804262
96.222030530514
96.2075095739905
96.2244833747644
96.2455095706344
96.243471809343
96.2572804777817
96.2876096127991
96.2960051962919
96.2897073916685
96.2960391767511
96.3201772821215
96.3480713494532
96.3570804507177
96.3381620011753
96.3185372910316
96.2972220857831
96.2928233886182
96.3197483769695
96.3272689419478
96.3298000367637
96.3061816954369
96.317434526477
96.3361001089949
96.3214107685424
96.3258555594837
96.3502198728969
96.350193489383
96.3249757154612
96.3088743064516
96.3060857770457
96.3227352603309
96.3406345925901
96.3461325171079
96.354837929814
96.3539113246092
96.3550138836226
96.3536477683684
96.3712520386513
96.4044295498595
96.3877712793468
96.3794902584352
96.4028719304828
96.4105103343382
96.3980431718189
96.3765613460078
96.3881310319196
96.4080583085508
96.3966430077974
96.3804003116454
96.4001207296446
96.4180408074777
96.450084002629
96.4948009593956
96.4837919018432
96.4376659853531
96.4191418003544
96.41558723299
96.3974333025952
96.4075402863805
96.4215522764838
96.3995517017982
96.3992229693454
96.3914023247108
96.3726614782253
96.3929450130686
96.4201465535005
96.4080342853711
96.3928307140346
96.4047817241473
96.3889818904898
96.3411639916396
96.3272293163038
96.3390534281229
96.3204524603985
96.3303650425355
96.3628099029624
96.3393583618075
96.3074810102733
96.3154951678656
96.3329848063342
96.3376496795124
96.3330164238329
96.3298288603855
96.3191773651704
96.3049995698413
96.3234230609455
96.3372095804732
96.3449764306138
96.3771373973613
96.3611291930148
96.3140630538992
96.3458799254857
96.4174547633303
96.4102824447804
96.3752696597314
96.430398706726
96.4497985085874
96.3710287227244
96.3405981676828
96.4059473610042
96.4725035848854
96.4724334503201
96.4184881438893
96.4091129413539
96.4363609239663
96.4013206058074
96.4086881859826
96.4657227463519
96.446489725664
96.4643638973213
96.5570249650742
96.5517719506056
96.4660163513142
96.4408949824468
96.5112015633115
96.546938149806
96.4526346123064
96.4152658541976
96.4448727525001
96.4609001363639
96.4940623924732
96.5075054780776
96.5133566784488
96.5207134294136
96.510512658653
96.5050870899209
96.4888389430788
96.5017208678251
96.487704744785
96.4737865789444
96.5048517696109
96.5648218469437
96.6032831385239
96.5591617852649
96.5382808202648
96.5709628021973
96.5675870644897
96.5176169687502
96.4987541285008
96.5053343148131
96.4868623687745
96.4948070174529
96.5125036534436
96.5124861929744
96.5006268320774
96.5069240716545
96.5813968207053
96.61441222358
96.5854011409929
96.5759024511622
96.570056244033
96.5854355154578
96.6339889653377
96.6359007043212
96.5797056516962
96.5596527300987
96.5936920160248
96.6119346140155
96.5818386308729
96.5600677921831
96.557238743744
96.5596605030755
96.554180386945
96.5717326347419
96.587250584275
96.5447151697207
96.553523357908
96.6325017336635
96.6575907612328
96.6129959705934
96.5978431028058
96.6249586868404
96.6381643500355
96.6625671462135
96.6325531827879
96.5882853734789
96.6236361260266
96.6477418190093
96.6624966299847
96.6475362838799
96.5883555353409
96.5883266900708
96.6147862073076
96.567464555847
96.518589035387
96.617136491746
96.7343347648822
96.7357649180856
96.6554481192272
96.6100170018839
96.662926409593
96.6790996953748
96.626179457411
96.6146316232732
96.6434386083959
96.6550266627019
96.6613978247175
96.6302994140041
96.5849500135332
96.6318064928084
96.6769833211154
96.6777888079109
96.6877145282921
96.6860207018624
96.7077946092734
96.7074839432138
96.6560693274513
96.6520677178038
96.6359063884543
96.6156243373055
96.6440547278161
96.6562554542776
96.6354063189563
96.6112360877899
96.5869876529098
96.600657565152
96.6315539864722
96.6412629124563
96.6652743251458
96.6313113390504
96.5610716777702
96.5727133245851
96.6132465073968
96.6256843527589
96.63408529255
96.6609827259866
96.6767792500392
96.6954175388295
96.7375354242595
96.8266679896144
96.8961846312227
96.8152189935765
96.7644606678893
96.7730645799
96.7430027190729
96.797809823267
96.8622468680092
96.8030958819154
96.6886154956548
96.6064202044996
96.5739021480727
96.5944894910698
96.6723377301143
96.7318158715916
96.7372768457176
96.7092663526988
96.6448619897571
96.6468946991906
96.7022469074319
96.7103496108681
96.674922325993
96.5287906125736
96.4075002817413
96.4269967455861
96.4369342294959
96.4895506082881
96.5509174848476
96.5659516809849
96.6340319455957
96.6658688821433
96.5979088325424
96.5424264259052
96.6007921490749
96.6904666650042
96.6501658166708
96.5390569181106
96.5280938021074
96.5765929083739
96.5684809264966
96.5700524017045
96.5636739982203
96.5124129387073
96.4742217338298
96.4508008992771
96.442749018215
96.4908193041829
96.661220479868
96.8201470923488
96.8207165058668
96.7868618204877
96.8589619605805
96.8241655657903
96.6720397378266
96.7510800554583
96.9331313746681
96.9605604787943
96.8904438757909
96.851411151948
96.8522531496567
96.8633402482543
96.8854857634118
96.9430719830434
96.9830159394571
97.0262797048385
97.0413723721127
97.0243838618812
97.042445844889
97.0340189567893
97.040414589888
96.9278439176053
96.8748421949633
97.0633267219353
97.175258399451
97.1753020109012
97.2022229348529
97.2326178927759
97.2279678632926
97.1025617185755
97.1467133753619
97.4387920755946
97.4814135586712
97.1907140449548
97.0778790379718
97.3541118172709
97.4439129050376
97.2691735931737
97.2408375159388
97.4270880852112
97.4589917437611
97.2738652322739
97.2339552193166
97.1905231401571
97.2232902699798
97.4448516069516
97.6336106355989
97.6917011069614
97.6706097116994
97.5794566840255
97.6059591423308
97.7063925817509
97.5951087626346
97.5580258521825
97.6657931297546
97.5764038806874
97.6248876745825
97.6829043142677
97.4862644238271
97.4388615109037
97.2923541442787
96.9832074907734
97.1303969412456
97.6877878616162
98.0476781076375
98.0625630944219
98.017124202185
97.8925727187084
97.5410286093147
97.4568705227447
97.6427899745364
97.6686425357679
97.5906411265217
97.5770319102654
97.5878203233844
97.6241804743804
97.712451964021
97.6051469827642
97.3902271548869
97.3455775409512
97.3890651780217
97.3141058266919
97.2267235708038
97.1509639524859
97.0309143150105
96.9712114406085
96.9472629174743
96.9287152162766
96.9295217070857
96.9368037212014
96.9197877756538
96.9390760479981
97.0129288841418
97.0212797655098
97.0197369110872
97.0657064719789
97.1216188828074
97.1877799292931
97.1741825773597
97.1554717100232
97.1582939965922
97.1402629017298
97.1009165880486
97.1012961021856
97.1365539359648
97.0346018639704
96.9268456071316
96.9743791058393
97.0108830741123
97.1264059044522
97.3134605422914
97.276943615099
97.2342141908343
97.1435699037856
97.0272167654974
97.1994868119568
97.4198946912091
97.5015091804691
97.5482769942596
97.5516295985773
97.2499856404792
97.1769098858105
97.6136104559161
97.8025535032844
97.7300472891032
97.7838543956341
97.8323535841455
97.719018161321
97.6267311254846
97.6769916269376
97.743117635505
97.7118188002082
97.8924237330396
97.9381692860072
97.5901946473393
97.5314110790287
97.676869526809
97.7832458383006
97.8091556708031
97.5021357191344
97.2695184049116
97.650459556239
98.1417676909683
98.1690807921458
97.9194924121632
97.6676181237066
97.6510307759004
97.731416729062
97.6754339055086
97.6240090009869
97.681987901222
97.649972295304
97.5910793149543
97.7010448986579
97.7168669633148
97.5842239875518
97.41004410722
97.4500178790647
97.5549979837464
97.5204298985542
97.676449770632
97.8856944405713
98.0900961287369
97.9083871236364
97.4917840966979
97.7017894961182
97.9804194930007
97.6248978710084
97.3613707819525
97.4672442607168
97.6098238208833
97.5954235177562
97.512149389958
97.463795199171
97.3143110023288
97.2276980431983
97.3488140675229
97.4696236741923
97.4241956670659
97.3806205574321
97.3778351939062
97.279119612351
97.2122345110704
97.2917612758181
97.3756031646182
97.3361730922456
97.3803988742366
97.4435964076841
97.3016833025934
97.2559007623498
97.4311659250036
97.553159413368
97.5668353128626
97.5322103957484
97.4994722925514
97.4910730662964
97.5635756007497
97.5685578799898
97.5013670554314
97.5501328643737
97.5702698911018
97.5067943250664
97.4724674311878
97.520994267645
97.5621061084261
97.5279774955601
97.5255665290817
97.5867586226123
97.5895492229601
97.5695407133351
97.5973555165807
97.57259267317
97.5986816864926
97.6614587190154
97.6584318516588
97.6446761245295
97.6226163039116
97.581087260542
97.6032669650588
97.6606585772451
97.6818975037727
97.6546037356667
97.6504681930537
97.6298761012293
97.585093248217
97.6402035420585
97.7039318178967
97.6656227982987
97.5836997742176
97.5600204139849
97.5442938839917
97.5423117283681
97.5989303600453
97.5736792205464
97.5101441182827
97.4980515779097
97.4578411646995
97.4077946606627
97.3958771450768
97.3827470800891
97.4141331173618
97.4651198377244
97.4613691575099
97.4628861786869
97.4752913143473
97.4598077689518
97.4937729368092
97.5022780994905
97.4666692821761
97.491961862543
97.5390207803902
97.5360613423166
97.4999472189445
97.5060405937597
97.5523422215374
97.5897356092595
97.6167165262116
97.6205916854178
97.5930480511576
97.6027272570632
97.6662189514981
97.6694629440419
97.6567260900269
97.6686967727965
97.6660331084242
97.7058763339023
97.7783642199662
97.7713508500071
97.7383324072795
97.7432644890951
97.8024265013006
97.8321334088277
97.820334420951
97.8052071526532
97.7777013247136
97.7807189091955
97.7464507945021
97.6292550733021
97.5626269970293
97.503295833985
97.3386798055643
97.09776378331
96.7547909992942
96.1908763712033
95.4901476972695
94.6415783380908
93.6046511979026
92.413504320677
91.1259727932478
89.9948338856198
88.7938197565628
87.4479437975246
86.2411083953192
85.0626876613427
83.9480804177134
82.8342541914828
81.6898395629426
80.6120893119368
79.5878675727215
78.4284314501313
77.3375748407992
76.6589409534073
76.3903642896109
76.435545841769
76.7199632723867
77.2992258483059
78.2667045629877
78.9509146486114
79.7057917299799
81.1654029057562
81.8911742336036
82.8946148952019
83.9498567779896
84.3791206685044
84.8626096732301
85.3214860811616
85.3460072809433
85.7993101697844
86.9090599413155
87.3001660991906
87.436259354671
87.510019927145
88.006542095967
88.5977943035612
88.722885719863
89.1402800700963
89.806622130681
90.0100110628452
90.0908707781401
90.5312561739589
90.9655185294693
91.1334049670231
91.0142144097754
90.6375916252137
91.4944967437534
92.4840737459105
92.2243531317325
92.0394599829879
92.5462351747516
92.8147311406291
92.7672729180343
92.714804510719
92.627670570026
92.7847488902119
93.3873616073814
93.5483525855529
93.372039581226
93.3306555819097
93.4655442531298
93.5254504702943
93.7151311745185
93.8993998802071
93.7171513835119
93.5506927333336
93.7990902535994
93.8566722727296
93.717823257657
93.7154539193068
93.8477297321875
94.0192793701956
94.1540760623785
94.2851025904032
94.4347253846625
94.5409358926706
94.5981992663523
94.6883422091712
94.7520150980144
94.7694494454638
94.7899116354586
94.7625190577651
94.6642855015537
94.4688178028397
94.1816554997969
93.8657142485631
93.539465525365
93.6038119308142
94.1371897011022
94.312558100165
94.3045640011961
94.6220041588944
94.9052722544182
94.9649789961499
94.9912625853179
94.7828186147877
94.6929270753068
95.4179087617688
95.6272766019302
95.526615874372
95.4763251463605
95.4632938176878
95.5428606954819
95.5256458898048
95.5011709493115
95.4994479910262
95.4980920093198
95.814952912138
95.9857588107323
95.7890926186798
95.658985402615
95.7587448753703
95.75675308099
95.6565106925547
95.6524620383606
95.6623146197434
95.6324161011531
95.8280852089838
95.9374991852498
95.9471349106537
95.9936687567914
95.9038903295699
95.6356437904984
95.1181312806907
94.2542703640498
93.5918808761676
93.6322813783485
93.9941406162649
94.5206058298863
95.0408070188546
95.5729181838692
95.9543349891646
95.9945610668442
95.9613110412481
96.0426329480572
96.0458318875353
95.9206508383719
95.7268804538864
95.5402396575748
95.3530583657795
95.096536952457
94.7316642850517
94.2874331791699
93.9955056424126
94.038159118177
94.1450309662766
94.2368512352583
94.3326223592249
94.3281228148518
94.14946936311
93.9534368705609
93.9390904367866
94.0796891470762
94.0139832782535
93.9428798823643
93.9623759681502
94.0918653306986
94.2463773337946
94.3003519980222
94.3330027685719
94.391486963085
94.4121437395554
94.6383009347545
95.0373316016414
95.2437916882377
95.4520675688322
95.7273356377277
95.9124961665417
96.0054541438433
96.0481828747868
95.9505775143329
95.6982834513674
95.2078031075923
94.2744375609278
92.839402478538
91.1072770902932
89.5467503776422
88.7079006822088
88.7305181086791
89.5743555312483
90.699016003735
91.5538755566714
92.289683810465
92.9765727829185
93.4213057022381
93.7946644721475
94.0486051353239
94.1218047225435
94.1440327389822
94.2592371527748
94.327213997968
94.3279436253647
94.3421248436907
94.3432276216388
94.285754876515
94.1954597371651
94.105332590957
94.0058690765265
93.9894130539922
94.1589496133228
94.445491880935
94.7672555160133
95.1377734338777
95.4271865464516
95.5712557231814
95.6079380800148
95.5517528516514
95.3709821278874
94.9724848360188
94.2834660436328
93.2530356143992
91.8076974268647
90.1500862749426
88.7492957786354
88.0493415758912
88.3557159878406
89.5031310716356
91.049770927114
92.5686543565778
93.7883465510072
94.6035789650122
95.0579609950567
95.2572514589385
95.298606444381
95.2703506280753
95.1843620798556
95.0230662751439
94.8372564852539
94.6463772536573
94.4234912140736
94.1622171590379
93.8548218020054
93.546186268872
93.2549953986382
92.9392337928896
92.5129569031618
91.9438849642648
91.277831874149
90.5861235452152
89.9133144449626
89.2510205333615
88.5940430312513
87.9726871294552
87.3581130597734
86.7428071634443
86.1439620516094
85.5412402810527
84.9383745353922
84.3198022352259
83.6994629921849
83.0600967982764
82.3663763066992
81.6436268181757
80.9015535353196
80.1652638748556
79.507679056465
78.9356022976784
78.4502315027542
78.0529267150777
77.7054619899867
77.3515072437541
76.919298208845
76.4253681642378
75.9383042793904
75.4747755131944
75.0296147868881
74.6408015397551
74.3456777075769
74.1769602380901
74.1889824243833
74.3665946279131
74.6686015393217
75.0969787074828
75.61313936105
76.1271447984464
76.6146828029424
77.0955065827248
77.5979630814689
78.1373628831672
78.7395346850253
79.3888871293242
80.0732846809795
80.7513462885191
81.390565024574
82.0006687908884
82.6008162769834
83.2075908956777
83.8091586583387
84.3965965800227
84.9776717431
85.5596967180008
86.1418795770052
86.7098643886269
87.2581129227463
87.7622052446993
88.2091659472356
88.5938245927911
88.908152101999
89.1531846055672
89.3064088923211
89.3635735455826
89.3909939683478
89.4354522698654
89.5651091236333
89.8405594971385
90.2660619147651
90.7749425011049
91.2689463439363
91.6543394644014
91.9254398485696
92.1288244389739
92.2769561971683
92.3578031247697
92.3419821023848
92.2521961072904
92.0978448871688
91.8705588601967
91.5584063465842
91.1586018038371
90.6760965177633
90.080087907671
89.3479159870924
88.470196486876
87.4276574050885
86.2596414286516
85.0553338192034
83.8928150691432
82.8694096917835
81.9863329533827
81.2128105655907
80.5477514236496
79.9724875690336
79.53344091319
79.2890541097629
79.254501236055
79.3185543264033
79.3466318945117
79.2696275572979
79.0169453797031
78.5542254503458
77.9281031915407
77.2568458413871
76.6270864625657
76.0533641451717
75.5733227276562
75.2107752680809
74.9598439015158
74.8195045154923
74.7694960697145
74.7980723561107
74.8880896868089
75.01949330333
75.1909854571379
75.4678589591624
75.8649331167663
76.34602709119
76.9132030973044
77.5292794576953
78.1434160516925
78.7769165835681
79.3786135301276
79.9481172889858
80.4799714142678
80.9766674866591
81.4674907990495
81.9155554303603
82.2696152949516
82.5456373090196
82.7553687415363
82.8902420585184
82.9383124822741
82.9670361058969
83.0055968925426
83.0617063573918
83.1763028747288
83.35712198884
83.6053625316776
83.9106803478597
84.2754786892224
84.7279686471495
85.1999506407611
85.4427969792338
84.9699919786207
83.5921916260503
81.8659043813946
80.3055234268093
78.8422978233967
77.6590861202736
77.3584162617981
78.0607982278212
79.2303797174388
80.3557302918731
81.2653795725767
81.9921982319134
82.5691214419432
83.0285552254188
83.4394518934431
83.8067739064859
84.140956474446
84.4375939567526
84.6666586710354
84.8282245722401
84.9587709010808
85.0937549966883
85.2202525585626
85.3274323760415
85.3778993507907
85.3111258978306
85.1350404693285
84.8380453623044
84.4357290665188
84.0606396277318
83.8220262913934
83.7918916256573
83.9264382216416
84.1499533231762
84.4492021940854
84.7761578692241
85.0548681938448
85.316877963362
85.5905634042003
85.8292451344324
86.0509282316624
86.2874043913492
86.494759881318
86.6418916960576
86.7743634791026
86.9179325792403
87.0566697673415
87.1941805787463
87.316937711039
87.4292278463896
87.524719349242
87.6350984939907
87.7612750159607
87.8962346368913
88.024933211154
88.1533226794206
88.2896772930752
88.4217545813023
88.5117842261671
88.5928136361655
88.6510793633067
88.6752642512929
88.6762156199424
88.654609483251
88.6129148086745
88.4933642883372
88.306760997929
88.1647355435185
88.0616821047182
87.9986146266654
88.0335379856989
88.1317864526526
88.2539498267595
88.3912621587758
88.4533353190619
88.442365408473
88.3808304437105
88.1474422121983
87.6910993380721
87.0792171341735
86.3351567423925
85.2904975457162
83.771038262287
82.2438444102638
81.9846875198366
82.939974304315
83.9894547279004
84.7413949407908
85.2646411755296
85.5556676445662
85.6963305376335
85.7524863722009
85.7545110585477
85.6986217159712
85.53638532876
85.2753594652205
84.964693258479
84.8249890124102
84.9184684403835
85.0754589318217
85.2911307668738
85.6011600865299
85.887038994191
86.1331417840727
86.403869158008
86.7247274017892
86.9867092834753
87.1966873448432
87.3825657839629
87.5621344236242
87.7675709994911
87.8526156680926
87.9194005194449
88.0795825833579
88.205626131172
88.2108820509401
88.2807648286838
88.4197556995922
88.4814350984566
88.5181328317496
88.6268098692726
88.7798359623672
88.8926628315556
88.7425113154973
88.2114433281048
87.6483361749124
87.4553402800998
87.6111363165884
87.9024350513183
88.3615620840669
88.8813251857269
89.2179819907011
89.416030214286
89.6474137632129
89.802037167345
90.0250459521994
90.4019895826747
90.731873203236
90.971295683279
91.2297118795087
91.5399712358145
91.8127377442342
92.1262705251289
92.4896908341947
92.7339125882719
92.9508335518684
93.2345933084662
93.487154009912
93.7428713352647
94.0464376756444
94.2405358307151
94.3020797649459
94.0923004800943
93.4308634701143
92.2124040800713
90.2598804027176
87.7866258809044
85.083922675687
82.3413235619658
79.625247153367
76.9436213421337
74.1998708319006
71.6583690234236
70.1428248185614
69.8392659185269
70.2975918591299
71.1128065611484
72.2412248642234
73.3219014525819
74.2464896697057
75.0726752448108
75.8284402130979
76.4227102709637
76.8240709551774
77.3451874341005
77.9024072493642
78.4530405297213
79.2446065559794
80.0133138011852
80.6019205370738
80.9114243828424
81.2384347906746
81.6789203314362
82.0939054961911
82.3068539744248
82.4109326481337
82.5197954736223
82.6896348476368
83.008369438199
83.4433853686504
83.4492971389625
83.3493008368174
83.4323574050675
84.3921273436053
84.6381041392463
84.3910324367037
84.6156347099766
84.8738443651179
84.9865048172141
84.949908208392
84.7831510749734
84.6541532101857
84.3750683309842
