1798
3999.43349933624
650.420452594757
1
128
4
95.7564633959808
95.7534553871917
95.720656930396
95.7456933579583
95.808052685513
95.823360635155
95.7483770689744
95.6498479074616
95.7215028933501
95.8128479545426
95.7620582344395
95.7565882890632
95.8101375401458
95.7140439361129
95.6815199223218
95.7650283365514
95.7642322371661
95.7494290477816
95.7162031616706
95.7256849817083
95.7881420670596
95.8211160459989
95.803796371682
95.7930100544713
95.8033023592837
95.7920615472302
95.7889137216927
95.7990255784127
95.7382124073576
95.6682385403903
95.759363702291
95.850481044765
95.8293457012738
95.7615143322269
95.6715340917909
95.6200887050587
95.736772204785
95.8309571244411
95.7773541909781
95.7533139295848
95.7759595655067
95.7234582769415
95.6638072108092
95.6674044712495
95.7626259223975
95.8356460383129
95.8262239162383
95.8356434557008
95.7781909211934
95.5954710469111
95.4742039836366
95.567627591822
95.7270940398546
95.8927916414867
95.9770568007451
95.9042364427464
95.7469288263809
95.7242528735443
95.7548722625945
95.6309539618823
95.6679774219499
95.7644860069089
95.7222956307234
95.8420492725548
95.9681796238756
95.9166281466522
95.9382408333723
95.8571510864973
95.6474605874599
95.7684838705026
95.823554784633
95.7967269796689
95.8290178657755
95.8797807215459
95.9443108773101
95.9110835099065
95.6040090324657
95.3214108524497
95.707488995877
96.0324319598155
96.048531662876
95.9068043759293
95.7901959043886
95.7919787182269
95.7373990535154
95.6395643012197
95.7049576925593
95.8157505539516
95.9217802260158
96.0100939684228
96.0205131799218
95.8788552950758
95.8639455205094
95.726687853881
95.4255799441061
95.6254262455804
95.7500572659242
95.7106831470203
95.9372178183485
96.0195675846392
95.9851619870098
95.7880688402951
95.7072315711131
95.8514051679175
95.6451345791093
95.4972084552296
95.7831008754083
95.8215719538086
95.821118561024
95.8669082915156
95.884176997535
95.8516907419926
95.7845551791785
95.7208984461768
95.6981348279333
95.6915031014846
95.6382534043422
95.6807882611905
95.8051952328908
95.763119767993
95.7209565358956
95.6883404377239
95.692581432999
95.7624841213427
95.7843436501066
95.8569676629241
95.8324074129797
95.7113697376009
95.7031111749735
95.833830689828
95.844699899904
95.6071911628515
95.5702905153434
95.7895102130261
95.9551924066996
95.7607617541622
95.8355969107207
96.0399896438236
96.0739385501135
95.8674482928562
95.5833405085245
95.5743796901339
95.7582447733989
96.0318712332058
96.089784230964
95.960991104511
95.9006458329543
95.80441030441
95.8234301805148
95.8946747540861
95.9302716417942
95.8873395852625
95.73600122601
95.6192266305282
95.7064310588285
95.8826647397396
95.9416166763221
95.8467499510633
95.8520638320751
95.948671249069
95.8850776181899
95.8146852393203
95.9276863384292
95.8682676689015
95.6587162777683
95.5522195450948
95.7643672572989
95.9299481716397
95.9340475280844
95.9318027903057
95.8725786128706
95.7282782982534
95.4720232627549
95.6131536663465
95.9106809978904
95.8012674932481
95.8139987538878
96.0214925900393
95.9725241241707
95.8094307567593
95.7092814434169
95.6855176682415
95.6315546421049
95.6215909342301
95.7209422285938
95.6623380235323
95.4856584276523
95.4086121006301
95.6257865926455
95.8485643200808
95.8145778367139
95.7306886346448
95.7274246248364
95.657995505574
95.5121846155238
95.5494477765838
95.5681022150837
95.3150194603799
95.4406825771057
95.7388327796413
95.7547263425399
95.6743879692118
95.5851664254486
95.57334384485
95.6883424783395
95.6860247840728
95.6234278659446
95.6484828949497
95.6930597539473
95.7054691475038
95.7214305945229
95.7013258543734
95.5878501590697
95.5719719384248
95.7002276021248
95.7079829970399
95.773263820023
95.8552471848371
95.7365455646099
95.6238598408117
95.6551373725116
95.8281517448599
95.8484420265034
95.7413644278745
95.7792045034538
95.7780001375988
95.7748105640606
95.7634774980721
95.7775946360032
95.6989322022301
95.5266543997427
95.5513528228968
95.7296076892697
95.8692487018597
95.8548713910441
95.7704827818452
95.8075031446125
95.7929935186018
95.5958069211375
95.6065192646518
95.7251642240494
95.6422438554768
95.6088724651321
95.6739599554855
95.67940293801
95.6192056521727
95.6434645878699
95.7217459696207
95.7899239975527
95.7378646890116
95.7553614377008
95.7486166921269
95.7370614059491
95.7644765739916
95.7866112479342
95.7680731019104
95.7558797418787
95.7524353352612
95.7576799344314
95.763516188768
95.7573479957294
95.7376700095158
95.7883370435664
95.9430105840171
95.9386180194996
95.7416265122681
95.7553896304916
95.8922425465827
95.7342495766533
95.6824957351769
95.8868384863097
95.861164685705
95.7732389145788
95.847246340821
95.9703992360911
95.8812178280002
95.7779140647944
95.7942553534826
95.7590110129906
95.7788530062483
95.9178731389039
95.9049312322247
95.7087720157207
95.6896524291376
95.7966689847368
95.8777771190401
95.9594686094007
95.8718528474361
95.7404755394776
95.816855743828
95.9049108015291
95.8130016903837
95.7380716105607
95.7327014517223
95.7470058928281
95.6894469355944
95.6304061472759
95.5799972473957
95.5672155120956
95.4616342644856
95.3853395851012
95.4234174729854
95.5127578357147
95.5043119369495
95.4373456612352
95.4997379075425
95.5276191649763
95.4044338182014
95.3862610071579
95.4210207441788
95.4749134410806
95.4342106353447
95.3024197755126
95.3102643074202
95.4626137287704
95.52799876797
95.6091759036619
95.6510467853387
95.5462672516144
95.5090231997794
95.699684588019
95.8332022743104
95.7594133016986
95.6524283286014
95.62224680187
95.6529077992285
95.695263949954
95.7107363088731
95.7741497714862
95.8449512675068
95.7951759011231
95.6739326333743
95.6047175298831
95.6425330198737
95.7192387199469
95.7202125687879
95.7744974856952
95.7972803507006
95.7528225571107
95.7884161213495
95.8569458318764
95.8345223465102
95.807844764642
95.7668332769295
95.7616434568464
95.7905803476616
95.7926766888332
95.7538185425846
95.7414163107912
95.759910470791
95.699723751539
95.653456227162
95.6358418818474
95.6270133422007
95.6787084539531
95.7614133130965
95.7324713205493
95.6355182225336
95.6245256067537
95.6328378522931
95.6183447228404
95.5984726232663
95.620989951608
95.6740770476522
95.7447514287357
95.7834278758565
95.7384932407436
95.7191109042893
95.7271694320253
95.7249608745205
95.7004425923382
95.6255591053938
95.6772333829735
95.7346344447153
95.6711883151941
95.6373011836785
95.6674779915257
95.6747633914357
95.6805767413077
95.6466175863348
95.6363640416099
95.6402105561387
95.6484598856977
95.6449559920435
95.6514584213774
95.7127848506168
95.7084553934086
95.6823722439835
95.6817116548869
95.7515000403213
95.812409781853
95.8054103173139
95.7980383593997
95.7246891575546
95.7070261923861
95.7408154144911
95.709593151938
95.6777014092648
95.7191828323185
95.7695320807398
95.7355833417192
95.6673271726168
95.6426058858282
95.6801038268957
95.7275290575833
95.7452444646641
95.7742848551364
95.7486393532474
95.7012243922816
95.6978405628344
95.6999438986912
95.6564817672353
95.6438422497154
95.7139225229258
95.7236558031589
95.6467456662942
95.6320468700458
95.6553902063671
95.6685828381247
95.698412318426
95.7378984211838
95.7728230019235
95.7275584943026
95.7315118078225
95.7858861195913
95.7984557032949
95.8341027998714
95.8068092349811
95.7041680905363
95.6299660547767
95.6596427501322
95.7345455946173
95.7479535278976
95.7363723067607
95.7476902378593
95.7529183981875
95.7167095157998
95.7239750366662
95.711833469987
95.7064435394606
95.7858391328113
95.7804240100055
95.72694992946
95.6398031917038
95.6315486595965
95.7067974500791
95.6895426193354
95.6808951857511
95.7111868141856
95.7239570519832
95.7074984611798
95.6989445526298
95.6378345084657
95.5820368181944
95.6414404962479
95.69705327121
95.6775205533137
95.647858174584
95.6598169405158
95.7077334159381
95.7013876172296
95.6325854292289
95.626315414436
95.6064572700728
95.5464413660194
95.5740223603857
95.5802651316604
95.5595022164899
95.5972217086329
95.6031700708834
95.6077442726523
95.5793582835294
95.5103470443229
95.4880953577884
95.439893690334
95.4211658859401
95.5180750621636
95.4507802852126
95.3697167186803
95.4102367282739
95.3529026132309
95.315928260264
95.3517061886533
95.3605719804038
95.3842588909029
95.4370194624908
95.4020895203536
95.3518570197003
95.3558502007693
95.3481326933534
95.3004542265432
95.2747136958281
95.2575802025977
95.2343089860372
95.2648855719534
95.259627672256
95.2080144547184
95.1970115940967
95.2150613261853
95.2021853973147
95.1796881194136
95.1833721695013
95.1939092321258
95.1610543892381
95.1326252977086
95.1365331128583
95.1588062960446
95.1339401510742
95.1274339265296
95.1726970989909
95.2520432937771
95.3434842223375
95.390001079204
95.427231084045
95.4520789285655
95.4649802944956
95.4568462552039
95.4516388427632
95.4714852257111
95.4947214982262
95.4758499850415
95.4186808692829
95.4334239862218
95.4680611510805
95.4123659420173
95.3371494369457
95.2923678068438
95.2208847369796
95.1395542900495
95.1281354673285
95.1263012974622
95.0678371333747
95.0037387192471
94.9303920695745
94.8469034672393
94.8146640416075
94.8768157963571
94.8649165196183
94.8031926091153
94.778441321095
94.7341878066543
94.6615279422162
94.5861215749072
94.5455493794885
94.4956196174163
94.36793264792
94.2562208147454
94.1581568519255
94.0150478247874
93.8860487763243
93.8145212857131
93.6833258779169
93.5592159579306
93.52477299996
93.4461235548858
93.3087131634539
93.2432119182933
93.2672262809955
93.2938124159317
93.3133369481193
93.3872442094356
93.4896295508582
93.6012619567675
93.6979140923495
93.7870542399832
93.9295058911329
94.0501292440613
94.1102521570069
94.1732878155846
94.2212493746769
94.2399502792212
94.263299718274
94.2700051227336
94.2137308146958
94.1018569052371
93.9661214238622
93.8064432209103
93.6657324455381
93.5004537479151
93.2832858713954
93.0859049976662
92.9296015522882
92.8348414274089
92.8378988623339
92.8575482683884
92.8561631189444
92.9206249477001
92.9944163443556
93.0861628553148
93.2070416453114
93.311327122289
93.4119192974371
93.4899812653726
93.5184686332581
93.5697732330383
93.6663459245634
93.7079724623604
93.7458499267017
93.8159356840111
93.8904965297177
93.9829695694343
94.0528662120984
94.1400217092483
94.2718572705502
94.3620425369056
94.4097134486324
94.4335811500497
94.4536058380965
94.4945198559101
94.5001175267998
94.4862798511066
94.4239881588777
94.2992123076225
94.1967347537415
94.0543827473018
93.7903449134633
93.5099176267535
93.3248739409506
93.2978497630594
93.4056629446214
93.5720492261552
93.75502796082
93.9644009729513
94.1298348139843
94.2448426275678
94.3707649730573
94.4845833368039
94.5632560467224
94.6563629165005
94.7389040232244
94.7902478441379
94.8425336234299
94.9016091446373
94.9163500672793
94.9098077967028
94.9228204643124
94.922453434514
94.9083028430084
94.9044448489596
94.925026712685
94.9493409311162
94.9805709519637
95.0278922341852
95.0563627733598
95.0912524827513
95.1112367766862
95.1379970363233
95.1602333322912
95.1289224556163
95.1269313491619
95.1635101442123
95.2109431907384
95.2556068892523
95.2687545426091
95.256483237867
95.2237834225556
95.2038424173463
95.2477439797082
95.3165594960686
95.3163032087876
95.2855535868571
95.3153626314214
95.3073353903173
95.2647774190635
95.2994875576079
95.3371277961868
95.3341484047652
95.3413076518804
95.3634750179284
95.3095837804826
95.2733335230826
95.3277142640263
95.3559807851313
95.3749651313827
95.413892634594
95.4032737836618
95.3566607323148
95.3391706400557
95.3744377654033
95.415192153378
95.4121311244497
95.392026816613
95.4149576106504
95.4330669310832
95.4232020840956
95.4322509383407
95.4451791968908
95.4500083238056
95.4905214978655
95.5326975365244
95.4922809858054
95.4358203673711
95.456217959946
95.5056159925447
95.5121319531365
95.4977408427044
95.4936009033364
95.4944136165665
95.5036287902838
95.5066856320218
95.4902980367247
95.4811518266751
95.4851743459816
95.514221297704
95.5209562552264
95.5144931497533
95.499738179709
95.4924732195802
95.5044831594882
95.5042965425515
95.4967089332002
95.5135360919056
95.5179423224029
95.477186072939
95.459451908851
95.4685007620678
95.4778894152191
95.4841302360215
95.4694213344821
95.4285250391313
95.3840666093651
95.3608603910205
95.3651041983336
95.3749845252461
95.3885759356279
95.4024883550929
95.4124757045999
95.4122767980712
95.4043751798212
95.3981269530647
95.4011023968237
95.4107311408546
95.44243416434
95.4349429474741
95.4248184869113
95.4263270731948
95.4122070609914
95.4211955254307
95.4176282202917
95.4053928257398
95.4545983625978
95.5068737487749
95.5050499325774
95.5108062751178
95.5557657990316
95.5707384648692
95.5392788046828
95.5236482991407
95.5490960490443
95.5659881028711
95.5710918801379
95.5362377531169
95.5312523999324
95.5966099065401
95.605533426699
95.5665472437137
95.5604721262576
95.6117164014417
95.6751454910768
95.6876340063472
95.7160003510551
95.6872479963259
95.6403689993117
95.6740066127434
95.6868752362024
95.6723986611359
95.648402760759
95.6526424121775
95.6757376992793
95.6552108311868
95.6458099256327
95.6649138213388
95.6931029916633
95.6804502771518
95.6908961185801
95.7252190781041
95.6874368200304
95.6555969202791
95.7022473179567
95.7117679311976
95.6546652868175
95.6348181339908
95.7146690007128
95.7185791002764
95.67424954593
95.7380399556897
95.8157226987884
95.7882159227743
95.7845593541019
95.7861760462576
95.7222497434917
95.6909993578454
95.7157793246609
95.7737661536278
95.820355190737
95.8055631166269
95.812461233531
95.8184885517541
95.7771658098681
95.7471029467233
95.761830310219
95.7510739404631
95.7509724653129
95.8178421515653
95.8101695805731
95.7635844375673
95.7781905545303
95.7949277123933
95.8294553316516
95.879923109855
95.8677000079015
95.8639565724483
95.9201699013999
95.838647675446
95.7587334251371
95.8371059846233
95.8696304939752
95.841492897505
95.8797420469828
95.9351144182917
95.9283510275712
95.8547709615842
95.8154326394597
95.8405428841983
95.8413304260918
95.8566472193607
95.882998972375
95.894421156792
95.9003291215837
95.8857452499334
95.8558683433502
95.850754589474
95.9324486185143
95.9453862565185
95.8965394571892
95.9147717963479
95.9027164829445
95.8781775403883
95.9257134269988
95.9521735071918
95.9174164419445
95.9309779137042
95.9480693831087
95.9065196628062
95.909399396432
95.921792950946
95.9084255396609
95.9332661704838
95.9589409638558
95.914806008468
95.8234106111325
95.7787432017096
95.8102520739541
95.8500863899416
95.8646640135099
95.8622003807299
95.884176663576
95.8592345275834
95.798729480245
95.7843590398413
95.7770918782956
95.802579690603
95.8131452469218
95.793742314319
95.8117586508114
95.8235737403686
95.8088409859114
95.8026174867953
95.7942360731027
95.7669678152311
95.775474050315
95.7957118294099
95.7709131198428
95.7912485102688
95.8630107638501
95.9072040386233
95.9981576926549
96.1274187828833
96.1625311689981
96.1342317889475
96.0935257782954
96.0311612127196
95.970255874737
95.9472336189639
95.9851627978431
95.9686647554931
95.8710490131896
95.7790191638172
95.7298293457299
95.7811331100918
95.9154825160912
95.9746608231552
95.9846118877019
95.9751162457785
95.9440040851203
95.9660188301622
95.9590739810678
95.8108847478345
95.5999134438801
95.5341342664319
95.5984533265897
95.656093483923
95.7706361149138
95.8496449136604
95.8607878033257
95.8887725211464
95.874750336764
95.8399780432915
95.8351291429213
95.8652666117013
95.8770235222834
95.8491624197807
95.8138103535984
95.7859028894893
95.7991700900177
95.8010960488984
95.7146789395776
95.6404163154545
95.6602389498077
95.7163659880094
95.7967934156644
95.8592892322593
95.8801929663673
95.9257838174144
95.9654388985392
95.955957851609
96.0094461526884
96.0982115531571
96.0749299625904
96.1063909825837
96.2833629672074
96.3281427100852
96.1967461812958
96.0591023966518
96.0894363137387
96.1688075388576
96.2064837678562
96.2487853873212
96.3102990967958
96.5373617606537
96.6543775947511
96.5513745246981
96.4635979781637
96.4208912255491
96.3711642262845
96.331046010595
96.3541433868288
96.4175540606375
96.4820681340498
96.5555452194302
96.6645292525031
96.7122082376241
96.644456108655
96.6454642461379
96.7779224437128
96.7817588226741
96.7138208380889
96.7691921138669
96.8458071101585
96.7352629878743
96.6559831001451
96.823212964985
96.8633691748152
96.8101041159618
96.7297935234848
96.5979592574503
96.6910703645975
96.9246759794714
97.0367850097109
97.0183323207336
96.9584194592633
97.0451807126812
97.0541457873079
96.9845060290512
97.1487279671177
97.2461450902297
97.1135427722154
96.9926037951088
97.0473095397011
97.2400223049815
97.2541874502572
96.8831876871941
96.7750396944459
97.2338740441881
97.5051539739481
97.3030847190951
97.0581875331067
97.381538211815
97.6729835892576
97.542570917683
97.5371350843362
97.3454879430509
97.1953680504965
97.2295184240718
97.2606841647903
97.331673199198
97.3351796833027
97.2815866490432
97.1397643763861
97.018311312129
97.0356607403688
97.0250520346432
96.9266506721447
96.8756135028163
96.8076197908087
96.5690722086856
96.4818885151046
96.6217862855104
96.6089852039333
96.4698818267183
96.361802967238
96.3321322729206
96.3149465911168
96.2918426348045
96.2727860194268
96.288076907658
96.3742718175461
96.4772352715049
96.5602447803742
96.5657306448681
96.4766654363987
96.4946462979935
96.537938117465
96.3976117699982
96.3362246626463
96.3865657687124
96.3956388409456
96.3301187779109
96.3673552893025
96.530506275541
96.521287381033
96.4328119622321
96.503826684544
96.6527606005689
96.6347575476167
96.5419604849937
96.5896919978245
96.6911893548167
96.6851184204693
96.7509046326566
96.8658041634162
96.8775224738627
96.7921140395102
96.7843636233393
96.9258951990753
96.9507802463348
97.0364614168882
97.0598014458537
97.0102620647311
97.3128232923767
97.6081919620083
97.5797288403029
97.424451430206
97.259875876024
97.2268967325976
97.4782611224165
97.7376344290041
97.8069683767606
97.5233593308239
97.325276898934
97.3666565667651
97.4387041796291
97.5033067165777
97.3860165268151
97.4272926520508
97.4302569941399
97.2002078942847
97.1557038239759
97.3566991679703
97.6623159709799
97.6285791473448
97.3111619615345
97.1946878537344
97.1157081436318
97.1063127685362
97.2532424488504
97.0965774522599
96.9465222665574
97.15870757674
97.3470625908861
97.2969908774557
97.013810770678
96.8343428758434
96.946440890317
97.0965582124928
97.2782191895989
97.2035836576216
97.2115541815933
97.3709375783417
97.5184892116476
97.5854540601601
97.2941698941146
96.9818323857872
96.8894513079647
96.9234331891448
96.9850317979548
97.04287597728
97.0562434048165
96.9316433068714
96.6537780987782
96.4403443380102
96.5512006292721
96.6306478411815
96.5641032036382
96.600784325175
96.7170433986962
96.7978222110966
96.8433849109333
96.8550652972309
96.8269507954457
96.825723174794
96.8641479017331
96.8964240540956
96.8603057233301
96.867820992129
96.8843408059785
96.8327679588511
96.8793609444385
96.9829279820246
96.9549300504426
96.9029993550757
96.9616693889738
96.9965023761756
96.9761301723554
96.9690472884418
97.020078792
97.0602883480154
97.111000267444
97.142371089555
97.0899674194403
97.0803677862087
97.0845841418633
97.0234014958537
97.0173936698229
97.0031660006266
97.0481957621163
97.1583468090004
97.1831852737022
97.1456315344742
97.1225894296305
97.1526124474982
97.1582581459322
97.089211450853
97.0973015088704
97.1910713301913
97.2077275706461
97.183653737169
97.1930011170268
97.1606353685086
97.0985428609334
97.0718171519322
97.0648680163232
97.0937488486491
97.093022003912
97.0263300581204
96.9936259102531
96.987278871646
96.9829687451841
96.9794977822221
96.9431084409734
96.8910521648241
96.8748386758493
96.8229892589458
96.766600500587
96.7970016575525
96.8357053718024
96.8153672635093
96.8003279577111
96.8065026908824
96.8216946973503
96.8291722513473
96.8693389913249
96.8763385184729
96.8366079525973
96.8195708333001
96.8158200613664
96.8319737609
96.8716451939771
96.8927332280182
96.9030460440924
96.9491022225372
97.0080905428416
97.0057367765979
96.9451332219389
96.94036987802
96.982826939579
96.9924499518103
97.026727609253
97.03262704716
97.0049750044694
96.9948536522842
97.0127055923885
97.0378157797755
97.0283787227737
96.9882881429271
97.0150733323515
97.0061884265283
96.9780826607132
96.9783275836297
96.9256700877325
96.8701795660522
96.8286079554375
96.7211318259495
96.6013351963336
96.4654046111238
96.2582274706853
95.8763755810719
95.2637879606541
94.4187032737042
93.391022312568
92.1065453227866
90.5653830160801
88.7795339320379
86.7594255728441
85.0844735377712
83.3660184920813
81.2795257066616
79.4874857417476
77.7653436324167
76.1222159329389
74.5947034420107
73.0427269310499
71.5477278682771
70.2602166659991
68.9805484731623
67.7210469529468
66.8181757075487
66.3662733088243
66.379861251941
66.7464261306743
67.4581169812773
68.6500167707648
69.5626886653081
70.7061311240263
72.938820739663
74.1357543690989
75.6608255771253
77.2473228180081
77.8851507092446
78.5878183425748
79.3047561263569
79.4174352218729
80.1192392174468
81.7265382456999
82.3601006961111
82.6022084329151
82.6909495161798
83.4160859723387
84.3631947443863
84.5352567071555
85.0059413014533
86.0154389600943
86.401085568191
86.4613257379796
87.079906672955
87.8010315211416
88.108856857702
87.9233727666616
87.2943030098665
88.4132796215297
89.9761133516739
89.7231483128532
89.4010539977694
90.0742792926306
90.4987716014777
90.4698702027725
90.3872360872106
90.160085180843
90.3006917441707
91.1970749159078
91.5063365064412
91.3200324294991
91.2461508145063
91.3741054421671
91.41970524585
91.6602199182414
91.9435411411277
91.7527962084987
91.4360803496515
91.5948593379246
91.7213125092857
91.6215614654524
91.6438407256023
91.8513885330657
92.1204430550619
92.3411892549552
92.5236156116659
92.7090920108659
92.8856662516747
92.9980828230007
93.1112235193423
93.233772410025
93.3117108307462
93.3290167167814
93.2779555796911
93.1467110802675
92.8693327420772
92.3827006363711
91.8023766186279
91.2320440075198
91.2230103591314
92.0078318982016
92.3855047020324
92.4254248138051
92.8669211551655
93.3626911472202
93.5374476812424
93.603919818054
93.3312375287437
93.1238211889312
94.0085532963852
94.3763235057577
94.3088997765884
94.2592357289812
94.2650217907892
94.3777797581846
94.3504395616692
94.2983610726929
94.2970002465952
94.3144784441755
94.7051964650295
94.9539750963815
94.7340246741117
94.5690411722317
94.6729508146401
94.6311884182493
94.4992695253448
94.5045651635426
94.5431780391581
94.5132847798848
94.7100037688886
94.8226960092791
94.8471084008415
94.9104950686486
94.7965081164073
94.4266861611573
93.7290753970383
92.5446137542325
91.4417037677165
91.3415620016514
91.8381310578211
92.6307850396825
93.4677908298134
94.3054668872874
94.859556998069
94.953517658865
94.9285875156877
95.0397161556212
95.0268371141576
94.838226135518
94.6111424747347
94.3517300992036
94.0546937428554
93.6966169611957
93.2103191450893
92.5573126946516
92.0742287479322
92.0861130306756
92.1745600163685
92.1982578498665
92.1548527308444
92.011240014452
91.747899734401
91.4163560291201
91.261476368681
91.4233089283995
91.3551398199956
91.244080768687
91.2517654346345
91.4246149303723
91.6452373456846
91.7350083477692
91.8086755309512
91.8807967670642
91.9143125044169
92.2465769011004
92.8297765986778
93.2005348013812
93.5815697235643
94.0560337916135
94.4151683790089
94.6057051036051
94.7155694069924
94.6625487831213
94.3769071463301
93.7214963485755
92.4109732742225
90.3388262000801
87.7200175815978
85.1795682708463
83.6807854336785
83.5837261345179
84.7667388125122
86.4294643146877
87.7695296921083
88.9522052277456
89.9778755991238
90.661234710542
91.2664592076691
91.696564850193
91.8702126807154
91.9787095094136
92.1715211501128
92.2880186791281
92.2859635043005
92.2585675271106
92.155011399438
91.9351052024937
91.6817517166375
91.5054585436151
91.3404675991972
91.2892022214851
91.5312391266047
91.973716565661
92.5296382571679
93.1904176158748
93.6995743403774
93.9462672103891
94.022444258834
93.9906816342758
93.8014197679379
93.3554861949315
92.5710531411822
91.3369122612892
89.6297240101661
87.695510882159
85.9789752676962
84.9946331626069
85.1742157542314
86.4214889231956
88.2777764517072
90.1907728857858
91.7501610052113
92.8004994525713
93.349946449162
93.5393636664246
93.5172317315366
93.3628233529999
93.1471562540975
92.8819667374053
92.5565489535889
92.1993475262659
91.8014253106813
91.3349523100657
90.8321163286754
90.3544666630764
89.9037986237744
89.4173457059167
88.7595552811805
87.883039372017
86.8710146522348
85.8083909269966
84.7402178321017
83.7106426333449
82.7586816821976
81.857334073353
81.0036910858507
80.2089629742922
79.4759972419548
78.788092595402
78.1342781371075
77.5106873007338
76.8718677777313
76.1233087273908
75.2242228606756
74.1887567569846
73.0906573554197
72.0115396459305
71.0057549422144
70.1507266440104
69.4717148699807
68.9540235342678
68.5445184054465
68.1328263066116
67.6614701332217
67.1116814075793
66.486819777347
65.8277416290216
65.1782881765374
64.5985889246557
64.1575778775244
63.882108182972
63.7973466274757
63.9259565625185
64.3002369849042
64.8669765959453
65.5566164194126
66.2859119864501
67.0209351441479
67.7829592191142
68.5777563751867
69.4191710616133
70.3542370829514
71.3421891674775
72.3495719703474
73.344376258997
74.3155151719511
75.2462521690115
76.1375083537468
77.0196600553229
77.8952466228919
78.7590114350998
79.6064595200054
80.4484354421267
81.2773566653738
82.0958818753101
82.8902133984108
83.6056970778431
84.2446632250212
84.8037269424431
85.2423175346357
85.5321344311735
85.6512382533674
85.6167017088577
85.5091145726903
85.4491506476947
85.5723374392108
85.940609739301
86.5579840057902
87.33609246845
88.0958163785047
88.7002905557973
89.1432559422328
89.4305984280944
89.6017259984448
89.68477397546
89.6277981818498
89.4209391184216
89.0931637413375
88.6572178978725
88.1011375716384
87.4324883458496
86.6572788870893
85.7692049955654
84.7644223332481
83.6301401504584
82.3891032873286
81.0606303700919
79.7015151042282
78.391423803315
77.1608000244355
76.0317977664128
74.9590665441952
73.9052339953524
72.9400486648978
72.1464221777918
71.6232802051243
71.4375442385204
71.5266128424944
71.700709605012
71.7422866594559
71.4403270834852
70.7218875062108
69.7263045820585
68.6631891498157
67.6255503000653
66.6844793554513
65.8979935539416
65.3032231058162
64.882541838437
64.6428506298066
64.5740788524858
64.608736428924
64.6923575087897
64.8240984931822
65.0446378952069
65.436149858737
66.0102966341207
66.7400892596611
67.5919851402174
68.50549291994
69.4455896860097
70.3987561301578
71.3250336899909
72.2130957036618
73.0605713740404
73.8412593106893
74.5500140594
75.1919745516353
75.7071059464238
76.0618929475547
76.283459803196
76.3864029624112
76.3977442675089
76.3488372506086
76.2801729850604
76.2745614743137
76.368177927402
76.5872216635483
76.9275469289582
77.3353595474735
77.7953859279389
78.3763666303104
79.003993863841
79.4052885968859
79.0527029681931
77.638375717462
75.6349811532568
73.457898121879
71.0815848611952
69.0513352350099
68.326718103265
69.1882798813039
70.9070233914025
72.6349744317923
74.0889695775604
75.2613754845217
76.1905632716676
76.9073550684373
77.4985740232313
78.0482444571642
78.5420002863853
78.9820357226243
79.3372611746915
79.5860041845923
79.7680591127235
79.9298303106565
80.1142288012523
80.2791362718905
80.335905491806
80.2757557389122
80.0744518056869
79.7159246269497
79.2513376312654
78.8166743157628
78.5629091504153
78.5453936727367
78.7326437592197
79.0657688120291
79.4707302846303
79.8786839013265
80.2731712944351
80.6740384379352
81.0489052987422
81.3913948964739
81.7017811990387
81.9924617460083
82.2647096969747
82.5205519250978
82.7640697152493
82.9696720881161
83.1439595720913
83.3125123700031
83.4649350967475
83.6177391771626
83.8079496251158
83.9892154516621
84.1306433448444
84.2667468042458
84.4245606477304
84.6060194505379
84.791231165245
84.9662829453465
85.1140292421412
85.2211336647817
85.2823077039729
85.3050376971212
85.2916326071781
85.1975502966642
84.9898434958072
84.7416655576335
84.4522523580226
84.1201728365028
83.8909280102216
83.7892244691868
83.8030024059759
83.9230229956063
84.0521374854663
84.143170578562
84.2004993125335
84.1955867411337
83.9972699647501
83.5497782425923
82.8693724137996
81.9051350308394
80.6990683249064
79.2498896065957
77.3811126261213
75.6479738726273
75.4340109248712
76.679431023219
78.1860820248206
79.3739297455084
80.1231763925642
80.5605041201534
80.8757705941606
81.0906133187112
81.1105837722729
81.0425867064615
80.8595451375191
80.5291545274584
80.2149803335673
80.1056798015795
80.2002876033305
80.3681856858339
80.6535123187522
81.0471224342087
81.3980646185845
81.7327289145059
82.0853346565644
82.4619283014711
82.822293954212
83.1243169807725
83.3990811052744
83.6322493590703
83.8583871850083
84.0823591998462
84.2221456004757
84.2722845039292
84.4157353761444
84.4845546419843
84.552271430129
84.683045021813
84.7860074575344
84.9427196786391
85.1579746119696
85.3413727184019
85.3721301014419
85.1846701195572
84.4971871328724
83.5021158395743
83.0146138842806
83.3443229954608
84.004816312416
84.6802657214985
85.2084360019479
85.6846937303816
86.2070164335702
86.7003297885438
87.0448790434444
87.3558489225387
87.7875545820868
88.1683938073243
88.5125514792676
88.932446532195
89.321773230484
89.6650550366451
89.9990200430469
90.3522546473625
90.8306487370726
91.2370851738623
91.5586539119234
91.8605023927784
92.1538452003127
92.4692808472375
92.8313339597819
92.8268394179665
92.2778289411853
91.1150877284671
88.9818162358439
85.8758543374069
82.3232237865389
78.7606823215989
75.1941004871882
71.5992957734821
68.0238584858575
64.4987324095487
61.5118679302064
59.9237311492595
59.6453796095695
60.2050272113769
61.3091283492778
62.7841567312431
64.2039090565903
65.4813194783323
66.5581841162047
67.6223117771155
68.5017379760513
69.3129988764907
70.2384294012602
71.015478431952
71.8519995700464
72.9041986651423
73.8053470951394
74.531355784961
75.1406307773986
75.6914887014554
76.1486765992341
76.4829480709112
76.825560455723
77.0968082645619
77.1221301146363
77.2544613832265
77.7536300853481
78.2278809949517
78.7262653789503
78.8954281931061
78.8382555265423
79.9646762752576
80.3635201388147
80.1822347590563
79.9602841562818
80.3443870328253
80.9692113542601
80.8686274353098
80.3385386642411
80.6878211904487
81.1960629195784
