.wavelength,Bacillus,Community,Control,Thioclava
650,1.4684623326032045,1.650026637292538,1.7931444237960825,1.8783936172466003
651,1.4851515583634955,1.6615259514298215,1.8008114797031958,1.8807751002317379
652,1.502113334982851,1.6733976903157746,1.809056607247521,1.88423225234569
653,1.5193220390677955,1.685642041926772,1.817875001657762,1.8887731600120174
654,1.5367868894129788,1.6982771418625333,1.8272672219770891,1.8944112194138067
655,1.5545454617189944,1.7113380698386456,1.837239629896479,1.9011621660248919
656,1.5726584136266377,1.7248787501893967,1.847805294174702,1.9090350730240178
657,1.5912072249124178,1.7389705542319578,1.8589845910836844,1.918033124649141
658,1.6102797798722943,1.7536952348214445,1.8708048204427152,1.9281515356487635
659,1.6299499261047612,1.7691221449766903,1.8832929420912379,1.9393762528452148
660,1.6502042806644268,1.7852316805041868,1.8964485185765545,1.9516809935039368
661,1.6707343780444077,1.8017440970720715,1.910142991068006,1.9649630667182458
662,1.6902889641987902,1.81768864145279,1.9239041929748089,1.9790362304667835
663,1.7112494399663056,1.835434239309664,1.938007672597319,1.9956030791662798
664,1.7340471122543897,1.85501452478037,1.9543243911336532,2.0149662573586222
665,1.7591861951777692,1.8769840150386743,1.9737585155169646,2.0367476284909003
666,1.7841031904874778,1.899255219340077,1.994278464185172,2.0590326568995634
667,1.80995694188357,1.9237982162802245,2.018835908399158,2.0826468708489476
668,1.8365385395483997,1.949882027352281,2.0433029881671247,2.1066432828808135
669,1.8621649746048645,1.9767543549272277,2.071897847177959,2.1332466078276053
670,1.8908048702053557,2.0062134857282548,2.1015227614098158,2.161994145732771
671,1.9169298188424524,2.0343810875059187,2.1330883682115225,2.193676280546988
672,1.9448080646323591,2.063311176528892,2.166433059539998,2.2272759409614236
673,1.9698078050918169,2.0895491117291014,2.197873437114181,2.261364907975013
674,1.9936645425999988,2.114641317836778,2.229291094433397,2.2944328947982573
675,2.0160235943977542,2.1373150447047067,2.2568543842665916,2.32548641786821
676,2.037013734334189,2.1586186086232857,2.2822567051371414,2.3536895897601493
677,2.0586476632219015,2.179588129487029,2.305240827276649,2.379255886517638
678,2.0813460632188456,2.2009818188732275,2.327037259376704,2.4027084314203204
679,2.1050434284605033,2.2230749241209624,2.348402578019216,2.4258562438735245
680,2.1270949623145077,2.24396192108349,2.369181086305389,2.4460277852752896
681,2.150071120909816,2.265102662857743,2.389996846178837,2.4672567537396515
682,2.168900406281698,2.283261491006673,2.408091665186335,2.4841310979893607
683,2.1889999751890734,2.301694754439122,2.427220479118314,2.501277223379422
684,2.2100713631250266,2.3215886170174924,2.4448959942231108,2.519567818601411
685,2.23171562094799,2.342542643860977,2.4644367350641523,2.5373797815432235
686,2.257049798052539,2.3667226845258087,2.486844989549394,2.562016534870189
687,2.284271768159742,2.3937495961197466,2.5120130708074466,2.5885760628875834
688,2.31484096487549,2.423594611085422,2.5422341014830443,2.621832736474655
689,2.348960976241815,2.4569931948281534,2.57615061028261,2.659375465225699
690,2.387685257460203,2.4946876258451045,2.614748916387899,2.701976514191794
691,2.4316855762258967,2.537488528915789,2.657811532277693,2.74936813135016
692,2.4810758184050257,2.5855684617211043,2.705587879542693,2.8015487064673668
693,2.536898344580935,2.6405616292904277,2.759684609087205,2.859016713206102
694,2.596168657637942,2.699265649900672,2.818357813657161,2.91986993776794
695,2.6604386079937012,2.7639433923253813,2.883825405558365,2.9867431378758593
696,2.726033384676722,2.830511722093114,2.951901200973743,3.0546588142150815
697,2.794001563439306,2.899719686295411,3.0236195759771944,3.1263826669329546
698,2.8633844880581343,2.970732114229952,3.096482422956822,3.199119256506407
699,2.932340191596541,3.0407083920727396,3.1689471992483624,3.270246904392411
700,3.003759257197956,3.112872162979446,3.2422105704200086,3.342795300516295
701,3.07249326875354,3.181792559447577,3.3130503014471704,3.4109736617009876
702,3.1418829293070605,3.251319420419268,3.3843134788279157,3.4797013111935504
703,3.2083437376754222,3.3178148622894224,3.4527585171878727,3.544711158384462
704,3.273424149354616,3.3833171329430245,3.5202467709201724,3.6088978369355624
705,3.3371313126407065,3.447673069449133,3.585863080922975,3.6715012730445022
706,3.400720938773906,3.5122034439391405,3.6500630303540067,3.7340757004752336
707,3.464646830191386,3.5775001507721678,3.7142497084377357,3.7974309664110795
708,3.530629613093721,3.64585040873557,3.7805625248397927,3.86569132419271
709,3.598091321073772,3.715868629547634,3.847607184820371,3.935301579416882
710,3.6699474922383777,3.7925086981216185,3.9229346054178253,4.014574732704683
711,3.741716414533629,3.868928713620191,3.9973863424193876,4.093694401917538
712,3.8221629877430456,3.9567079181364875,4.0844093890621185,4.185285582240179
713,3.89921159042535,4.041104859229387,4.168580771304594,4.27479313037659
714,3.9870128592685097,4.138699094705585,4.265749674820568,4.377855074342967
715,4.069514781072778,4.230699870715396,4.358026023773375,4.476320535122334
716,4.158173864449578,4.33003238390646,4.458372973484893,4.583190349631725
717,4.2388505191447905,4.419886658207255,4.55008785132392,4.680909712551162
718,4.313603508506356,4.502161508190023,4.635204499877541,4.771454456111357
719,4.372371285706165,4.564894452055562,4.7014416117310915,4.842039560594257
720,4.412737317854311,4.605772705393229,4.74601071224452,4.889872276234583
721,4.420942991533244,4.608056945264319,4.752401633502544,4.897969741029382
722,4.407732744613593,4.586670915010737,4.734888049887367,4.881375629421452
723,4.344167830582232,4.506243809699816,4.658143846643448,4.802865849119602
724,4.2653047687251435,4.410399360388882,4.56613972163035,4.708877538850107
725,4.1294625553565,4.249836095540867,4.408077059229382,4.545183688683017
726,3.9796630883223147,4.075187658177809,4.236377983170242,4.367636147473764
727,3.7883701178712332,3.8564555759653967,4.018474767777244,4.141960081158602
728,3.5777019282441236,3.6176233036706895,3.7800060059015763,3.894742742646833
729,3.344610331829322,3.3588250852474935,3.519885811188719,3.6260092446631234
730,3.095592258409107,3.085485673227528,3.244334957422922,3.341253518632963
731,2.834802054327339,2.8048170052848724,2.9609060751553287,3.0486453599496226
732,2.56783661681635,2.522069006062722,2.6751663157499697,2.753638769122319
733,2.2962651095272495,2.23862999149005,2.3885602592593145,2.457736242786911
734,2.025887646510157,1.9607280415932697,2.107406156742409,2.1674220755089393
735,1.7601088044061444,1.6904467236424001,1.8334212148495967,1.8849811964523124
736,1.5006285352146957,1.4296028206551679,1.5679212560688687,1.6120765889906332
737,1.2530816156617546,1.1831752754976343,1.3165329666887455,1.3537115178102368
738,1.0244348570967854,0.9583379164107408,1.0850633063999855,1.116838232850934
739,0.8070739529021005,0.7465895059039171,0.8672058509758249,0.8933271753143046
740,0.6254686828176985,0.5730150428626821,0.6864342443525872,0.708181195752728
741,0.4566110900421461,0.4133360203199643,0.5202604892444045,0.5377619295093478
742,0.3277428706960331,0.2949410573614644,0.39594985022533025,0.41007264260189963
743,0.2185330280599241,0.19658635843542047,0.29231801332653307,0.30379348805436046
744,0.1421884641875923,0.13126318626532812,0.22316313307623345,0.23286091318025148
745,0.08839990594094022,0.08826172406522098,0.17712450958453083,0.18590028666621936
746,0.05746524058139465,0.06778401358483989,0.1546365153223448,0.16300744883393334
747,0.04347615835376412,0.06324035006274784,0.1491877629688109,0.15724469978997802
748,0.045090146451250285,0.07372927703371568,0.15935507527542198,0.16704221456599477
749,0.05402285439468061,0.0894696499179637,0.17528964779832307,0.18294607196199456
750,0.07379358704376004,0.11556753793311692,0.20240305930413352,0.20970965337581055
751,0.09388133468231515,0.13984345297265127,0.22661793486903356,0.23444628848988186
752,0.12143746598162394,0.1711480099814252,0.25896907366387495,0.2673694960242383
753,0.1466034837623819,0.19916386275921535,0.2864062448373417,0.29453444651373856
754,0.17623835413868327,0.23102388260695386,0.3180341024120288,0.3266585603661315
755,0.20323747491173366,0.26046928733029234,0.34667549336384357,0.35401333693572923
756,0.23207569140133696,0.29136815238300645,0.376505853580671,0.3830404315274287
757,0.25857605311857285,0.32031142973549476,0.4047689956309044,0.4101131824277089
758,0.2850087263999224,0.34901935510328047,0.4329571870785384,0.4374894913078189
759,0.31037671973949676,0.3766396643208421,0.4605684061841557,0.464947322985684
760,0.335395397617271,0.4037532720260925,0.48800904589093336,0.4930615198372846
761,0.36051230503063797,0.4308296626897883,0.5156175747120435,0.5216920006053227
762,0.3863453291733754,0.4583787574010838,0.543625977775062,0.5517732499583404
763,0.4122283354208206,0.4859901762483714,0.5719331020169528,0.5821130887943108
764,0.4398321074404289,0.5148856231179901,0.6012851052957128,0.6138116300470898
765,0.467266526131361,0.5435424267118032,0.630404961743671,0.6455692187493998
766,0.4965089986703997,0.5734801913036305,0.660831318470923,0.6773002328412657
767,0.5258949959369182,0.6032505717769236,0.6909165050177785,0.7096679550164599
768,0.555942940599436,0.6334374098873596,0.7215315758024475,0.7406837255312544
769,0.5863528928520889,0.6638206791275139,0.752222996437454,0.7721364133261622
770,0.616393628198366,0.693885326252656,0.782520296860894,0.802272152447967
771,0.6465476537163042,0.7240805652497251,0.8128503884826134,0.8321786267696232
772,0.6761146630068097,0.753736490332336,0.842462103562899,0.8615071569331002
773,0.7053550542872858,0.7830805681078933,0.8716819466137566,0.8907960249638884
774,0.7343043210291662,0.8121463920070973,0.900600935534321,0.9201953568538142
775,0.7629357345978887,0.8409197960410097,0.9292281650798601,0.9500853387656538
776,0.7917043680416062,0.8697981549907298,0.9579521280687676,0.9802900580097824
777,0.8204996393138879,0.8988692294067041,0.9869206849833936,1.0110156499536413
778,0.8502077341449892,0.9286951465437503,1.016347591536018,1.0423910051374454
779,0.88071945335942,0.9596025646983074,1.046860028854905,1.0741820543444023
780,0.9124173509802088,0.9916270013677752,1.0783700714439406,1.1073926397288993
781,0.9470848866394448,1.0265909004639868,1.1125285438438575,1.14226987208132
782,0.9824935457031371,1.0622506893892156,1.147720276584614,1.178454027745248
783,1.0235308125198206,1.1034044640661107,1.1881211978549058,1.219774034035118
784,1.0651919266781564,1.144928630539062,1.2291804630832281,1.2617059893068232
785,1.1126484644072114,1.1919225551308592,1.2759346509206433,1.3096703773143692
786,1.1601119322831372,1.2384735153377824,1.322565099291663,1.3574605863224938
787,1.2076937152874112,1.2845968234476177,1.3691065040863046,1.4051165863942277
788,1.2509958848497247,1.3257677158377945,1.4111854544748599,1.4481634368373544
789,1.2879893865776357,1.3604185669720334,1.4468553365571954,1.4846777063056982
790,1.3101592553929589,1.3795978822513701,1.467740876825879,1.5061313785397457
791,1.3283273271541944,1.3950270538712888,1.4847438131790234,1.5237670201279334
792,1.3204998105947745,1.384622248598929,1.4758698817290612,1.5148166390742774
793,1.316029861420639,1.3778198255574432,1.4708187464541465,1.5098567006907277
794,1.2866743527787978,1.3475523874214932,1.4408719460709603,1.4790285431101955
795,1.2591817434850352,1.3190354399465767,1.4130938841368343,1.45033705888967
796,1.2238217262900262,1.2846332761824921,1.3779571149391168,1.4139672332924134
797,1.1865978055864683,1.2483403381584155,1.34090966758349,1.3754780278237455
798,1.15504059438171,1.2190521386940378,1.3102834049501944,1.3436405808386223
799,1.125937084909959,1.192461928388791,1.2823043941868622,1.3145334770887895
800,1.1059057724628563,1.1752668819701477,1.263840949378923,1.295214287867665
801,1.0954711135587019,1.1674571395928401,1.2551024217630404,1.28583921872485
802,1.092008443182112,1.1665289410929534,1.2533746562695596,1.283628957400551
803,1.0973646577745424,1.1732859168119878,1.2599635110159975,1.2897999083837606
804,1.1083445114520858,1.1855905792849954,1.272083106365021,1.3016134590678492
805,1.119016468359038,1.1963368943165764,1.2830234144100756,1.3125473712154205
806,1.1346447269263578,1.2119538505382723,1.2989849796918886,1.3285688434557743
807,1.144544616787608,1.2215881865483067,1.3083841874115065,1.338340447830107
808,1.1568834821146003,1.2332131651447833,1.3202775850547368,1.3507419296182648
809,1.1660965081766401,1.2422329244081256,1.328669125070593,1.3598657346179532
810,1.1753518745718645,1.2508988221441413,1.3369620893082632,1.3689226069105684
811,1.1840157164464695,1.2593602844460723,1.3449514226594468,1.37797457071276
812,1.1926471096721327,1.2678027414595265,1.3529435485153023,1.3870269137880264
813,1.2014675023278003,1.2765324112759768,1.3613612456386868,1.3965748543740757
814,1.2107968435326497,1.285829434903511,1.3703861091115144,1.4065913311523233
815,1.2207522800783044,1.2957977659060522,1.3801222833006865,1.41712096952151
816,1.2313654125845765,1.306326614016121,1.3906260251511744,1.4279884704641763
817,1.2428851577692788,1.3177468943377824,1.4022531004918202,1.439799722637201
818,1.2553363571760754,1.3300513715856233,1.4150397943658055,1.4521795535021003
819,1.2684835508639711,1.3429722050890511,1.4287191372094412,1.4654413985142398
820,1.2833910661651722,1.3579060924710578,1.444501874821518,1.480123478755831
821,1.2987980083434967,1.3731475697663547,1.460676525961781,1.4954186091197768
822,1.3159559022181189,1.390696064805023,1.4792075595456844,1.5129231678794157
823,1.3343073081255121,1.4092579718123535,1.4985980134236199,1.5313468496600444
824,1.3540853101100134,1.4294101780018336,1.5195640323741957,1.5519984425957114
825,1.3755609561569502,1.451135274086288,1.5419050517787245,1.5739643559102598
826,1.39873213669415,1.4741340584127811,1.5654257242684766,1.5976475146428823
827,1.4235356355540856,1.4984667994964724,1.5902563012512279,1.6227219977129614
828,1.449875799582167,1.52400888904858,1.6162625534920734,1.6490724254360423
829,1.4776904268234223,1.5507949411528712,1.6433444733223057,1.6764137298055501
830,1.5065832746202712,1.578582460858392,1.6713507786484718,1.7047806287501344
831,1.5369762667206588,1.6078961439405197,1.7006462060779333,1.7341053974202403
832,1.5682370745075278,1.6378907234915365,1.730469058750191,1.7642561146681313
833,1.6008178487372497,1.6693315910383466,1.7620205874353945,1.795847554812829
834,1.6343760689923965,1.7013631002425211,1.7939819157665045,1.8280144405550383
835,1.6693422468346832,1.7349573887605887,1.8278034860679533,1.8623977596855523
836,1.704682794116677,1.7686344885470187,1.8617811463021379,1.8965874512541276
837,1.7420069198848043,1.8042851911002233,1.8978735838917666,1.9337221618631153
838,1.7782740812540834,1.8388384781371196,1.933136318041103,1.9696245168222457
839,1.8157748583753133,1.8743091448449758,1.9696914946049544,2.007069976798638
840,1.8510481540445456,1.9074029741982024,2.004085902025461,2.042161359487684
841,1.8846944061370356,1.9384408631043786,2.0366706386676,2.075033083448419
842,1.9143049099697578,1.9650831913954048,2.0649117740232494,2.103052364935734
843,1.9395407918795255,1.98711551440241,2.0884395716284,2.1262064478676166
844,1.9564024998907277,2.000689288507583,2.103417955719417,2.140298619879521
845,1.9693083349661435,2.010381263153128,2.114336479869061,2.150488672364984
846,1.9689334405200531,2.0071971809530087,2.11194251497355,2.1478679811297057
847,1.9674648291184889,2.003130866464463,2.1086901801776365,2.1439914165876157
848,1.9525238709840842,1.9862413526833598,2.0915053908723946,2.127666456382053
849,1.9371574318350255,1.9691145705040565,2.0742373230896387,2.110460579006036
850,1.9154613002261556,1.9463729687140332,2.0500586990657244,2.0876198919756037
851,1.8921743398968778,1.9223637318368678,2.0245941539344785,2.063281713607947
852,1.8695261653709845,1.8997656181400855,1.9999027234537168,2.0400513121190453
853,1.847544364710021,1.8782971459286246,1.9763116373792462,2.01803664488341
854,1.829013551632608,1.8609345427011255,1.9570512540564158,1.9999968551930702
855,1.8146633211617578,1.84819294680568,1.9428488393085779,1.9865744790848165
856,1.8047114222640799,1.840228957124999,1.933870024655948,1.9778207793746754
857,1.8001927477185187,1.8379926413309424,1.9313477765180376,1.9746113925015767
858,1.8019195911900114,1.8421612842352144,1.9353583928672466,1.9775095790974457
859,1.809009911847657,1.8520233423601988,1.945460442619362,1.9861315287530366
860,1.8251698675607253,1.8707668609163213,1.9645000595890312,2.0035190331183945
861,1.8543931601017067,1.9032280114275375,1.9968202228120633,2.0347460678176335
862,1.8897246016038542,1.9408807784609954,2.035017250543554,2.07182904597601
863,1.9564939087058886,2.0101352402078407,2.1039005773779857,2.14045262198033
864,2.0215157996331348,2.076301170970394,2.1705429404503715,2.2069057552350646
865,2.1193967797867144,2.173320777469849,2.268069365582777,2.304965423222172
866,2.2104492218758103,2.2619785794359135,2.3576855471809566,2.395201147546085
867,2.30814604487097,2.353953139909672,2.4515037009213794,2.4901740843683586
868,2.391293206323988,2.4296157695948892,2.529433491468617,2.5693842142059076
869,2.45684830255205,2.4856400598134245,2.5883685068620212,2.629741720355766
870,2.489393998302112,2.507193990539319,2.613448235950091,2.6560753044292333
871,2.5041606186508125,2.5108132343040706,2.6206282056487833,2.664324459478627
872,2.465352163825072,2.4611927468840578,2.574551586089252,2.618492411804694
873,2.420236853215714,2.4053638836528792,2.5222879618536114,2.5663847313279726
874,2.320931246041383,2.2990565856480294,2.418022195879713,2.460893967689969
875,2.2157308716133723,2.186082513006257,2.3075052882739775,2.3492653835566677
876,2.0891958803701076,2.058155385134109,2.179373192914721,2.21887916171564
877,1.9478244817110064,1.9153280035550075,2.036352933310591,2.073708575122211
878,1.8226193789542324,1.7938302528032968,1.91257169359823,1.9477431294549967
879,1.693043180417552,1.6694485719096255,1.7852888027906089,1.8182561577027623
880,1.5906406063446632,1.5746163261787511,1.6867445864847412,1.718056867127881
881,1.5018242586289476,1.4944194475157033,1.602565190401081,1.6322930352481932
882,1.4334125094513566,1.4349525278847257,1.5391755097615798,1.567686722827509
883,1.3808504925870966,1.3908134083598234,1.4914865484535034,1.5190174549219153
884,1.3408375640057,1.3589154226770168,1.456265085968361,1.4829883430128243
885,1.310496550692851,1.3355446824232924,1.4301723846193213,1.456093212629012
886,1.288673507552478,1.3203431091061402,1.4123456979262345,1.437822532807579
887,1.275014476048713,1.3120977858307812,1.4020683357944888,1.4267720921603166
888,1.2673853768305579,1.309539699538892,1.3975220598896356,1.421940068470132
889,1.26738139058684,1.3130324497610288,1.3993834857359044,1.42357925474178
890,1.2717368390431956,1.3204863443851134,1.4054430654981869,1.429422801062912
891,1.2804641095779254,1.3308973105075954,1.4143816672733178,1.4388544708863311
892,1.291893991379479,1.343473420027613,1.4259055311008746,1.4505334748043655
893,1.3040792678734912,1.3560390639542856,1.4373678275007054,1.4626519115499343
894,1.3165025620904034,1.3684567444714768,1.4489971612177224,1.4747935101604666
895,1.3274054541395468,1.3789991949460143,1.4590003500503699,1.4853985286754
896,1.336052217239571,1.38709044951207,1.466858319517291,1.4937968895138012
897,1.3423809237833544,1.3926626416801566,1.47249822346433,1.4998860661992655
898,1.3444590274011823,1.3939728951406067,1.474352557516957,1.5016497172757879
899,1.3444301498115412,1.3930246759658278,1.4740634286510046,1.5012086945321432
900,1.3389275937864902,1.3868075190341913,1.4688365449523946,1.4952215087499825
901,1.3320604139649277,1.3792286707058645,1.4623946041654632,1.4878698232177778
902,1.3200398661284192,1.3668190820564066,1.4510756019045532,1.4756779294760076
